3997.9	0.0000391
3996.0	0.0000259
3994.1	0.0000197
3992.1	0.0000196
3990.2	0.0000276
3988.3	0.0000387
3986.3	0.0000356
3984.4	0.0000241
3982.5	0.0000183
3980.6	0.0000115
3978.6	0.0000016
3976.7	-0.0000002
3974.8	0.0000078
3972.8	0.0000149
3970.9	0.0000141
3969.0	0.0000058
3967.1	-0.0000056
3965.1	-0.0000115
3963.2	-0.0000057
3961.3	0.0000045
3959.3	0.0000094
3957.4	0.0000101
3955.5	0.0000094
3953.6	0.0000054
3951.6	-0.0000012
3949.7	-0.0000074
3947.8	-0.0000169
3945.8	-0.0000257
3943.9	-0.0000234
3942.0	-0.0000153
3940.1	-0.0000109
3938.1	-0.0000061
3936.2	0.0000012
3934.3	0.0000065
3932.3	0.0000019
3930.4	-0.0000147
3928.5	-0.0000282
3926.6	-0.0000284
3924.6	-0.0000259
3922.7	-0.0000261
3920.8	-0.0000194
3918.8	-0.0000094
3916.9	-0.0000122
3915.0	-0.0000234
3913.1	-0.0000280
3911.1	-0.0000284
3909.2	-0.0000263
3907.3	-0.0000146
3905.3	0.0000019
3903.4	0.0000165
3901.5	0.0000305
3899.6	0.0000330
3897.6	0.0000144
3895.7	-0.0000038
3893.8	-0.0000032
3891.8	0.0000050
3889.9	0.0000113
3888.0	0.0000223
3886.1	0.0000299
3884.1	0.0000261
3882.2	0.0000270
3880.3	0.0000214
3878.3	0.0000012
3876.4	-0.0000010
3874.5	0.0000110
3872.6	0.0000082
3870.6	0.0000006
3868.7	0.0000017
3866.8	0.0000095
3864.8	0.0000233
3862.9	0.0000353
3861.0	0.0000322
3859.1	0.0000271
3857.1	0.0000629
3855.2	0.0001338
3853.3	0.0001581
3851.3	0.0001097
3849.4	0.0000521
3847.5	0.0000274
3845.6	0.0000271
3843.6	0.0000232
3841.7	0.0000148
3839.8	0.0000228
3837.8	0.0000401
3835.9	0.0000535
3834.0	0.0000601
3832.1	0.0000499
3830.1	0.0000280
3828.2	0.0000162
3826.3	0.0000201
3824.3	0.0000362
3822.4	0.0000558
3820.5	0.0000645
3818.6	0.0000722
3816.6	0.0000688
3814.7	0.0000288
3812.8	-0.0000118
3810.8	-0.0000146
3808.9	0.0000036
3807.0	0.0000151
3805.1	0.0000216
3803.1	0.0000336
3801.2	0.0000370
3799.3	0.0000266
3797.3	0.0000225
3795.4	0.0000264
3793.5	0.0000218
3791.6	0.0000091
3789.6	0.0000036
3787.7	0.0000080
3785.8	0.0000125
3783.8	0.0000118
3781.9	0.0000126
3780.0	0.0000164
3778.1	0.0000135
3776.1	0.0000041
3774.2	0.0000016
3772.3	0.0000113
3770.3	0.0000210
3768.4	0.0000231
3766.5	0.0000282
3764.6	0.0000344
3762.6	0.0000307
3760.7	0.0000231
3758.8	0.0000164
3756.8	0.0000140
3754.9	0.0000375
3753.0	0.0000889
3751.1	0.0001280
3749.1	0.0001282
3747.2	0.0001137
3745.3	0.0000989
3743.3	0.0000605
3741.4	0.0000150
3739.5	0.0000012
3737.6	0.0000120
3735.6	0.0000360
3733.7	0.0000638
3731.8	0.0000622
3729.8	0.0000345
3727.9	0.0000245
3726.0	0.0000287
3724.1	0.0000151
3722.1	-0.0000098
3720.2	-0.0000241
3718.3	-0.0000215
3716.3	-0.0000060
3714.4	0.0000171
3712.5	0.0000362
3710.6	0.0000302
3708.6	-0.0000010
3706.7	-0.0000304
3704.8	-0.0000344
3702.8	-0.0000218
3700.9	-0.0000179
3699.0	-0.0000272
3697.1	-0.0000353
3695.1	-0.0000315
3693.2	-0.0000134
3691.3	0.0000337
3689.3	0.0000870
3687.4	0.0000745
3685.5	0.0000137
3683.6	-0.0000183
3681.6	-0.0000192
3679.7	-0.0000154
3677.8	0.0000018
3675.8	0.0000307
3673.9	0.0000629
3672.0	0.0000973
3670.1	0.0000914
3668.1	0.0000361
3666.2	-0.0000063
3664.3	-0.0000180
3662.3	-0.0000206
3660.4	-0.0000156
3658.5	0.0000030
3656.6	0.0000184
3654.6	0.0000192
3652.7	0.0000301
3650.8	0.0000456
3648.8	0.0000371
3646.9	0.0000155
3645.0	0.0000013
3643.1	0.0000024
3641.1	0.0000121
3639.2	0.0000124
3637.3	0.0000004
3635.3	-0.0000074
3633.4	0.0000073
3631.5	0.0000408
3629.6	0.0000545
3627.6	0.0000275
3625.7	-0.0000030
3623.8	-0.0000017
3621.8	0.0000260
3619.9	0.0000476
3618.0	0.0000368
3616.1	0.0000172
3614.1	0.0000193
3612.2	0.0000381
3610.3	0.0000556
3608.3	0.0000548
3606.4	0.0000383
3604.5	0.0000221
3602.6	0.0000110
3600.6	0.0000037
3598.7	-0.0000026
3596.8	-0.0000028
3594.8	0.0000087
3592.9	0.0000169
3591.0	0.0000136
3589.1	0.0000176
3587.1	0.0000322
3585.2	0.0000395
3583.3	0.0000368
3581.3	0.0000345
3579.4	0.0000416
3577.5	0.0000530
3575.6	0.0000508
3573.6	0.0000369
3571.7	0.0000303
3569.8	0.0000315
3567.8	0.0000314
3565.9	0.0000281
3564.0	0.0000253
3562.1	0.0000259
3560.1	0.0000272
3558.2	0.0000255
3556.3	0.0000218
3554.3	0.0000177
3552.4	0.0000155
3550.5	0.0000238
3548.6	0.0000455
3546.6	0.0000654
3544.7	0.0000660
3542.8	0.0000507
3540.8	0.0000380
3538.9	0.0000324
3537.0	0.0000251
3535.1	0.0000186
3533.1	0.0000176
3531.2	0.0000178
3529.3	0.0000172
3527.3	0.0000229
3525.4	0.0000344
3523.5	0.0000416
3521.6	0.0000379
3519.6	0.0000283
3517.7	0.0000197
3515.8	0.0000131
3513.8	0.0000101
3511.9	0.0000143
3510.0	0.0000201
3508.1	0.0000184
3506.1	0.0000132
3504.2	0.0000103
3502.3	0.0000074
3500.3	0.0000058
3498.4	0.0000099
3496.5	0.0000176
3494.6	0.0000254
3492.6	0.0000294
3490.7	0.0000246
3488.8	0.0000145
3486.8	0.0000102
3484.9	0.0000095
3483.0	0.0000051
3481.1	0.0000013
3479.1	0.0000026
3477.2	0.0000068
3475.3	0.0000063
3473.3	0.0000037
3471.4	0.0000143
3469.5	0.0000320
3467.6	0.0000346
3465.6	0.0000244
3463.7	0.0000153
3461.8	0.0000092
3459.8	0.0000055
3457.9	0.0000055
3456.0	0.0000079
3454.1	0.0000128
3452.1	0.0000202
3450.2	0.0000269
3448.3	0.0000285
3446.3	0.0000218
3444.4	0.0000102
3442.5	0.0000061
3440.6	0.0000105
3438.6	0.0000130
3436.7	0.0000113
3434.8	0.0000105
3432.8	0.0000143
3430.9	0.0000171
3429.0	0.0000112
3427.1	0.0000015
3425.1	-0.0000028
3423.2	-0.0000013
3421.3	0.0000059
3419.3	0.0000141
3417.4	0.0000171
3415.5	0.0000205
3413.6	0.0000296
3411.6	0.0000347
3409.7	0.0000273
3407.8	0.0000150
3405.8	0.0000108
3403.9	0.0000164
3402.0	0.0000239
3400.1	0.0000264
3398.1	0.0000198
3396.2	0.0000101
3394.3	0.0000113
3392.3	0.0000205
3390.4	0.0000254
3388.5	0.0000208
3386.6	0.0000055
3384.6	-0.0000050
3382.7	0.0000007
3380.8	0.0000080
3378.8	0.0000084
3376.9	0.0000065
3375.0	0.0000037
3373.1	0.0000070
3371.1	0.0000162
3369.2	0.0000214
3367.3	0.0000254
3365.3	0.0000336
3363.4	0.0000392
3361.5	0.0000378
3359.6	0.0000353
3357.6	0.0000320
3355.7	0.0000190
3353.8	0.0000042
3351.8	-0.0000006
3349.9	0.0000014
3348.0	0.0000081
3346.1	0.0000153
3344.1	0.0000169
3342.2	0.0000200
3340.3	0.0000296
3338.3	0.0000378
3336.4	0.0000415
3334.5	0.0000438
3332.6	0.0000400
3330.6	0.0000264
3328.7	0.0000130
3326.8	0.0000088
3324.8	0.0000103
3322.9	0.0000134
3321.0	0.0000200
3319.1	0.0000308
3317.1	0.0000365
3315.2	0.0000327
3313.3	0.0000329
3311.3	0.0000399
3309.4	0.0000408
3307.5	0.0000365
3305.6	0.0000363
3303.6	0.0000384
3301.7	0.0000354
3299.8	0.0000271
3297.8	0.0000244
3295.9	0.0000307
3294.0	0.0000349
3292.1	0.0000306
3290.1	0.0000253
3288.2	0.0000291
3286.3	0.0000396
3284.3	0.0000448
3282.4	0.0000452
3280.5	0.0000495
3278.6	0.0000597
3276.6	0.0000674
3274.7	0.0000685
3272.8	0.0000731
3270.8	0.0000825
3268.9	0.0000845
3267.0	0.0000777
3265.1	0.0000695
3263.1	0.0000631
3261.2	0.0000605
3259.3	0.0000644
3257.3	0.0000685
3255.4	0.0000623
3253.5	0.0000495
3251.6	0.0000437
3249.6	0.0000488
3247.7	0.0000553
3245.8	0.0000565
3243.8	0.0000551
3241.9	0.0000557
3240.0	0.0000617
3238.1	0.0000719
3236.1	0.0000782
3234.2	0.0000784
3232.3	0.0000798
3230.3	0.0000827
3228.4	0.0000814
3226.5	0.0000757
3224.6	0.0000696
3222.6	0.0000724
3220.7	0.0000825
3218.8	0.0000853
3216.8	0.0000787
3214.9	0.0000713
3213.0	0.0000702
3211.1	0.0000713
3209.1	0.0000677
3207.2	0.0000631
3205.3	0.0000647
3203.3	0.0000717
3201.4	0.0000759
3199.5	0.0000736
3197.6	0.0000715
3195.6	0.0000755
3193.7	0.0000810
3191.8	0.0000748
3189.8	0.0000583
3187.9	0.0000520
3186.0	0.0000627
3184.1	0.0000748
3182.1	0.0000786
3180.2	0.0000741
3178.3	0.0000635
3176.3	0.0000536
3174.4	0.0000502
3172.5	0.0000497
3170.6	0.0000492
3168.6	0.0000551
3166.7	0.0000665
3164.8	0.0000778
3162.8	0.0000870
3160.9	0.0000864
3159.0	0.0000751
3157.1	0.0000673
3155.1	0.0000672
3153.2	0.0000696
3151.3	0.0000699
3149.3	0.0000664
3147.4	0.0000631
3145.5	0.0000608
3143.6	0.0000592
3141.6	0.0000606
3139.7	0.0000586
3137.8	0.0000500
3135.8	0.0000453
3133.9	0.0000500
3132.0	0.0000565
3130.1	0.0000564
3128.1	0.0000514
3126.2	0.0000465
3124.3	0.0000399
3122.3	0.0000313
3120.4	0.0000291
3118.5	0.0000316
3116.6	0.0000280
3114.6	0.0000228
3112.7	0.0000239
3110.8	0.0000271
3108.8	0.0000263
3106.9	0.0000175
3105.0	0.0000053
3103.1	0.0000009
3101.1	0.0000093
3099.2	0.0000219
3097.3	0.0000213
3095.3	0.0000110
3093.4	0.0000120
3091.5	0.0000247
3089.6	0.0000318
3087.6	0.0000265
3085.7	0.0000156
3083.8	0.0000113
3081.8	0.0000147
3079.9	0.0000152
3078.0	0.0000109
3076.1	0.0000129
3074.1	0.0000187
3072.2	0.0000144
3070.3	0.0000061
3068.3	0.0000046
3066.4	0.0000054
3064.5	0.0000045
3062.6	0.0000060
3060.6	0.0000109
3058.7	0.0000144
3056.8	0.0000141
3054.8	0.0000106
3052.9	0.0000051
3051.0	0.0000012
3049.1	0.0000057
3047.1	0.0000173
3045.2	0.0000221
3043.3	0.0000162
3041.3	0.0000071
3039.4	-0.0000028
3037.5	-0.0000074
3035.6	-0.0000020
3033.6	0.0000055
3031.7	0.0000081
3029.8	0.0000067
3027.8	0.0000039
3025.9	-0.0000003
3024.0	-0.0000056
3022.1	-0.0000068
3020.1	-0.0000119
3018.2	-0.0000279
3016.3	-0.0000342
3014.3	-0.0000217
3012.4	-0.0000064
3010.5	0.0000030
3008.6	0.0000102
3006.6	0.0000193
3004.7	0.0000268
3002.8	0.0000250
3000.8	0.0000186
2998.9	0.0000158
2997.0	0.0000136
2995.1	0.0000085
2993.1	0.0000037
2991.2	-0.0000009
2989.3	-0.0000026
2987.3	0.0000008
2985.4	0.0000037
2983.5	0.0000047
2981.6	0.0000060
2979.6	0.0000055
2977.7	0.0000039
2975.8	0.0000057
2973.8	0.0000142
2971.9	0.0000231
2970.0	0.0000240
2968.1	0.0000214
2966.1	0.0000188
2964.2	0.0000119
2962.3	0.0000037
2960.3	0.0000020
2958.4	0.0000086
2956.5	0.0000188
2954.6	0.0000248
2952.6	0.0000223
2950.7	0.0000144
2948.8	0.0000089
2946.8	0.0000086
2944.9	0.0000084
2943.0	0.0000049
2941.1	0.0000020
2939.1	0.0000038
2937.2	0.0000107
2935.3	0.0000185
2933.3	0.0000207
2931.4	0.0000128
2929.5	0.0000012
2927.6	-0.0000029
2925.6	-0.0000012
2923.7	0.0000005
2921.8	0.0000056
2919.8	0.0000141
2917.9	0.0000200
2916.0	0.0000184
2914.1	0.0000116
2912.1	0.0000085
2910.2	0.0000105
2908.3	0.0000100
2906.3	0.0000092
2904.4	0.0000130
2902.5	0.0000172
2900.6	0.0000191
2898.6	0.0000194
2896.7	0.0000187
2894.8	0.0000180
2892.8	0.0000193
2890.9	0.0000217
2889.0	0.0000241
2887.1	0.0000267
2885.1	0.0000287
2883.2	0.0000279
2881.3	0.0000228
2879.3	0.0000133
2877.4	0.0000030
2875.5	-0.0000038
2873.6	-0.0000057
2871.6	-0.0000021
2869.7	0.0000064
2867.8	0.0000176
2865.8	0.0000257
2863.9	0.0000260
2862.0	0.0000255
2860.1	0.0000288
2858.1	0.0000262
2856.2	0.0000157
2854.3	0.0000113
2852.3	0.0000159
2850.4	0.0000165
2848.5	0.0000084
2846.6	0.0000001
2844.6	-0.0000014
2842.7	0.0000038
2840.8	0.0000096
2838.8	0.0000121
2836.9	0.0000102
2835.0	0.0000069
2833.1	0.0000081
2831.1	0.0000098
2829.2	0.0000040
2827.3	-0.0000032
2825.3	-0.0000033
2823.4	0.0000004
2821.5	0.0000025
2819.6	0.0000011
2817.6	-0.0000034
2815.7	-0.0000045
2813.8	-0.0000004
2811.8	0.0000022
2809.9	-0.0000002
2808.0	-0.0000045
2806.1	-0.0000058
2804.1	-0.0000026
2802.2	0.0000027
2800.3	0.0000061
2798.3	0.0000063
2796.4	0.0000063
2794.5	0.0000037
2792.6	-0.0000024
2790.6	-0.0000065
2788.7	-0.0000077
2786.8	-0.0000080
2784.8	-0.0000071
2782.9	-0.0000066
2781.0	-0.0000069
2779.1	-0.0000066
2777.1	-0.0000052
2775.2	-0.0000032
2773.3	-0.0000042
2771.3	-0.0000067
2769.4	-0.0000057
2767.5	-0.0000047
2765.6	-0.0000065
2763.6	-0.0000047
2761.7	0.0000018
2759.8	0.0000030
2757.8	-0.0000037
2755.9	-0.0000107
2754.0	-0.0000167
2752.1	-0.0000198
2750.1	-0.0000153
2748.2	-0.0000078
2746.3	-0.0000064
2744.3	-0.0000104
2742.4	-0.0000143
2740.5	-0.0000173
2738.6	-0.0000184
2736.6	-0.0000153
2734.7	-0.0000119
2732.8	-0.0000120
2730.8	-0.0000116
2728.9	-0.0000061
2727.0	-0.0000013
2725.1	-0.0000071
2723.1	-0.0000180
2721.2	-0.0000171
2719.3	-0.0000083
2717.3	-0.0000056
2715.4	-0.0000065
2713.5	-0.0000061
2711.6	-0.0000052
2709.6	-0.0000082
2707.7	-0.0000144
2705.8	-0.0000161
2703.8	-0.0000164
2701.9	-0.0000233
2700.0	-0.0000322
2698.1	-0.0000363
2696.1	-0.0000351
2694.2	-0.0000304
2692.3	-0.0000227
2690.3	-0.0000133
2688.4	-0.0000074
2686.5	-0.0000081
2684.6	-0.0000140
2682.6	-0.0000209
2680.7	-0.0000203
2678.8	-0.0000107
2676.8	-0.0000025
2674.9	-0.0000007
2673.0	0.0000006
2671.1	0.0000002
2669.1	-0.0000053
2667.2	-0.0000096
2665.3	-0.0000065
2663.3	0.0000012
2661.4	0.0000045
2659.5	-0.0000005
2657.6	-0.0000064
2655.6	-0.0000063
2653.7	-0.0000034
2651.8	-0.0000006
2649.8	0.0000011
2647.9	-0.0000036
2646.0	-0.0000143
2644.1	-0.0000205
2642.1	-0.0000188
2640.2	-0.0000130
2638.3	-0.0000059
2636.3	-0.0000010
2634.4	-0.0000033
2632.5	-0.0000076
2630.6	-0.0000072
2628.6	-0.0000059
2626.7	-0.0000075
2624.8	-0.0000094
2622.8	-0.0000076
2620.9	-0.0000036
2619.0	-0.0000030
2617.1	-0.0000059
2615.1	-0.0000064
2613.2	-0.0000039
2611.3	-0.0000051
2609.3	-0.0000110
2607.4	-0.0000161
2605.5	-0.0000170
2603.6	-0.0000176
2601.6	-0.0000218
2599.7	-0.0000253
2597.8	-0.0000208
2595.8	-0.0000099
2593.9	-0.0000021
2592.0	-0.0000030
2590.1	-0.0000085
2588.1	-0.0000112
2586.2	-0.0000104
2584.3	-0.0000111
2582.3	-0.0000154
2580.4	-0.0000184
2578.5	-0.0000152
2576.6	-0.0000087
2574.6	-0.0000059
2572.7	-0.0000087
2570.8	-0.0000117
2568.8	-0.0000132
2566.9	-0.0000134
2565.0	-0.0000121
2563.1	-0.0000148
2561.1	-0.0000220
2559.2	-0.0000235
2557.3	-0.0000169
2555.3	-0.0000094
2553.4	-0.0000063
2551.5	-0.0000051
2549.6	-0.0000021
2547.6	0.0000011
2545.7	0.0000014
2543.8	-0.0000016
2541.8	-0.0000066
2539.9	-0.0000073
2538.0	-0.0000018
2536.1	-0.0000001
2534.1	-0.0000052
2532.2	-0.0000087
2530.3	-0.0000073
2528.3	-0.0000049
2526.4	-0.0000040
2524.5	-0.0000019
2522.6	0.0000037
2520.6	0.0000083
2518.7	0.0000057
2516.8	0.0000008
2514.8	0.0000000
2512.9	0.0000022
2511.0	0.0000045
2509.1	0.0000033
2507.1	-0.0000017
2505.2	-0.0000056
2503.3	-0.0000068
2501.3	-0.0000067
2499.4	-0.0000052
2497.5	-0.0000005
2495.6	0.0000059
2493.6	0.0000096
2491.7	0.0000090
2489.8	0.0000061
2487.8	0.0000033
2485.9	0.0000025
2484.0	0.0000039
2482.1	0.0000022
2480.1	-0.0000043
2478.2	-0.0000077
2476.3	-0.0000033
2474.3	0.0000037
2472.4	0.0000025
2470.5	-0.0000046
2468.6	-0.0000060
2466.6	-0.0000046
2464.7	-0.0000064
2462.8	-0.0000057
2460.8	-0.0000013
2458.9	0.0000007
2457.0	-0.0000009
2455.1	-0.0000035
2453.1	-0.0000061
2451.2	-0.0000091
2449.3	-0.0000103
2447.3	-0.0000072
2445.4	-0.0000049
2443.5	-0.0000077
2441.6	-0.0000094
2439.6	-0.0000076
2437.7	-0.0000062
2435.8	-0.0000039
2433.8	0.0000033
2431.9	0.0000085
2430.0	0.0000034
2428.1	-0.0000029
2426.1	0.0000011
2424.2	0.0000084
2422.3	0.0000076
2420.3	0.0000006
2418.4	-0.0000057
2416.5	-0.0000093
2414.6	-0.0000100
2412.6	-0.0000085
2410.7	-0.0000057
2408.8	-0.0000044
2406.8	-0.0000037
2404.9	-0.0000011
2403.0	-0.0000004
2401.1	-0.0000027
2399.1	-0.0000030
2397.2	-0.0000029
2395.3	-0.0000060
2393.3	-0.0000080
2391.4	-0.0000082
2389.5	-0.0000101
2387.6	-0.0000118
2385.6	-0.0000140
2383.7	-0.0000192
2381.8	-0.0000221
2379.8	-0.0000207
2377.9	-0.0000221
2376.0	-0.0000281
2374.1	-0.0000403
2372.1	-0.0000616
2370.2	-0.0000824
2368.3	-0.0000961
2366.3	-0.0001086
2364.4	-0.0001185
2362.5	-0.0001177
2360.6	-0.0001098
2358.6	-0.0001022
2356.7	-0.0000913
2354.8	-0.0000746
2352.8	-0.0000590
2350.9	-0.0000484
2349.0	-0.0000426
2347.1	-0.0000411
2345.1	-0.0000471
2343.2	-0.0000604
2341.3	-0.0000732
2339.3	-0.0000797
2337.4	-0.0000792
2335.5	-0.0000711
2333.6	-0.0000623
2331.6	-0.0000636
2329.7	-0.0000694
2327.8	-0.0000652
2325.8	-0.0000519
2323.9	-0.0000398
2322.0	-0.0000343
2320.1	-0.0000331
2318.1	-0.0000311
2316.2	-0.0000275
2314.3	-0.0000223
2312.3	-0.0000165
2310.4	-0.0000137
2308.5	-0.0000122
2306.6	-0.0000077
2304.6	-0.0000003
2302.7	0.0000055
2300.8	0.0000062
2298.8	0.0000033
2296.9	-0.0000009
2295.0	-0.0000071
2293.1	-0.0000109
2291.1	-0.0000076
2289.2	-0.0000029
2287.3	-0.0000001
2285.3	0.0000026
2283.4	0.0000024
2281.5	-0.0000026
2279.6	-0.0000091
2277.6	-0.0000096
2275.7	0.0000007
2273.8	0.0000079
2271.8	0.0000024
2269.9	-0.0000029
2268.0	0.0000004
2266.1	0.0000031
2264.1	-0.0000026
2262.2	-0.0000117
2260.3	-0.0000141
2258.3	-0.0000093
2256.4	-0.0000034
2254.5	-0.0000008
2252.6	-0.0000034
2250.6	-0.0000078
2248.7	-0.0000093
2246.8	-0.0000112
2244.8	-0.0000152
2242.9	-0.0000174
2241.0	-0.0000159
2239.1	-0.0000128
2237.1	-0.0000114
2235.2	-0.0000129
2233.3	-0.0000130
2231.3	-0.0000118
2229.4	-0.0000145
2227.5	-0.0000209
2225.6	-0.0000243
2223.6	-0.0000198
2221.7	-0.0000125
2219.8	-0.0000124
2217.8	-0.0000179
2215.9	-0.0000207
2214.0	-0.0000204
2212.1	-0.0000204
2210.1	-0.0000232
2208.2	-0.0000254
2206.3	-0.0000220
2204.3	-0.0000165
2202.4	-0.0000147
2200.5	-0.0000154
2198.6	-0.0000137
2196.6	-0.0000093
2194.7	-0.0000070
2192.8	-0.0000062
2190.8	-0.0000039
2188.9	0.0000011
2187.0	0.0000072
2185.1	0.0000087
2183.1	0.0000010
2181.2	-0.0000079
2179.3	-0.0000056
2177.3	0.0000030
2175.4	0.0000052
2173.5	0.0000023
2171.6	0.0000028
2169.6	0.0000051
2167.7	0.0000075
2165.8	0.0000104
2163.8	0.0000117
2161.9	0.0000140
2160.0	0.0000150
2158.1	0.0000078
2156.1	-0.0000022
2154.2	-0.0000032
2152.3	0.0000042
2150.3	0.0000105
2148.4	0.0000121
2146.5	0.0000128
2144.6	0.0000117
2142.6	0.0000084
2140.7	0.0000061
2138.8	0.0000057
2136.8	0.0000071
2134.9	0.0000090
2133.0	0.0000075
2131.1	0.0000049
2129.1	0.0000061
2127.2	0.0000123
2125.3	0.0000182
2123.3	0.0000195
2121.4	0.0000210
2119.5	0.0000256
2117.6	0.0000295
2115.6	0.0000305
2113.7	0.0000283
2111.8	0.0000260
2109.8	0.0000275
2107.9	0.0000299
2106.0	0.0000275
2104.1	0.0000242
2102.1	0.0000244
2100.2	0.0000235
2098.3	0.0000160
2096.3	-0.0000010
2094.4	-0.0000309
2092.5	-0.0000799
2090.6	-0.0001588
2088.6	-0.0002500
2086.7	-0.0002916
2084.8	-0.0002421
2082.8	-0.0001279
2080.9	0.0000042
2079.0	0.0001460
2077.1	0.0003322
2075.1	0.0006069
2073.2	0.0009862
2071.3	0.0014384
2069.3	0.0018855
2067.4	0.0022280
2065.5	0.0024005
2063.6	0.0024092
2061.6	0.0023043
2059.7	0.0021384
2057.8	0.0019533
2055.8	0.0017729
2053.9	0.0016040
2052.0	0.0014514
2050.1	0.0013203
2048.1	0.0012081
2046.2	0.0011086
2044.3	0.0010183
2042.3	0.0009361
2040.4	0.0008654
2038.5	0.0008044
2036.6	0.0007446
2034.6	0.0006877
2032.7	0.0006401
2030.8	0.0005993
2028.8	0.0005643
2026.9	0.0005343
2025.0	0.0005032
2023.1	0.0004697
2021.1	0.0004391
2019.2	0.0004164
2017.3	0.0003975
2015.3	0.0003729
2013.4	0.0003451
2011.5	0.0003206
2009.6	0.0002974
2007.6	0.0002721
2005.7	0.0002450
2003.8	0.0002196
2001.8	0.0001970
1999.9	0.0001746
1998.0	0.0001506
1996.1	0.0001294
1994.1	0.0001159
1992.2	0.0001063
1990.3	0.0000915
1988.3	0.0000722
1986.4	0.0000595
1984.5	0.0000554
1982.6	0.0000516
1980.6	0.0000450
1978.7	0.0000365
1976.8	0.0000300
1974.8	0.0000304
1972.9	0.0000349
1971.0	0.0000368
1969.1	0.0000327
1967.1	0.0000259
1965.2	0.0000204
1963.3	0.0000148
1961.4	0.0000075
1959.4	0.0000024
1957.5	0.0000042
1955.6	0.0000084
1953.6	0.0000078
1951.7	0.0000043
1949.8	0.0000037
1947.9	0.0000072
1945.9	0.0000120
1944.0	0.0000162
1942.1	0.0000165
1940.1	0.0000106
1938.2	0.0000029
1936.3	-0.0000018
1934.4	-0.0000004
1932.4	0.0000062
1930.5	0.0000096
1928.6	0.0000084
1926.6	0.0000101
1924.7	0.0000156
1922.8	0.0000220
1920.9	0.0000311
1918.9	0.0000389
1917.0	0.0000351
1915.1	0.0000233
1913.1	0.0000182
1911.2	0.0000241
1909.3	0.0000332
1907.4	0.0000370
1905.4	0.0000355
1903.5	0.0000369
1901.6	0.0000430
1899.6	0.0000495
1897.7	0.0000598
1895.8	0.0000722
1893.9	0.0000782
1891.9	0.0000803
1890.0	0.0000807
1888.1	0.0000776
1886.1	0.0000768
1884.2	0.0000819
1882.3	0.0000873
1880.4	0.0000882
1878.4	0.0000855
1876.5	0.0000828
1874.6	0.0000848
1872.6	0.0000968
1870.7	0.0001148
1868.8	0.0001219
1866.9	0.0001133
1864.9	0.0001089
1863.0	0.0001159
1861.1	0.0001243
1859.1	0.0001335
1857.2	0.0001450
1855.3	0.0001561
1853.4	0.0001653
1851.4	0.0001703
1849.5	0.0001736
1847.6	0.0001930
1845.6	0.0002292
1843.7	0.0002409
1841.8	0.0002138
1839.9	0.0001915
1837.9	0.0001912
1836.0	0.0001915
1834.1	0.0001879
1832.1	0.0001879
1830.2	0.0001849
1828.3	0.0001729
1826.4	0.0001592
1824.4	0.0001448
1822.5	0.0001252
1820.6	0.0001076
1818.6	0.0000979
1816.7	0.0000932
1814.8	0.0000904
1812.9	0.0000846
1810.9	0.0000735
1809.0	0.0000627
1807.1	0.0000583
1805.1	0.0000559
1803.2	0.0000500
1801.3	0.0000439
1799.4	0.0000385
1797.4	0.0000332
1795.5	0.0000333
1793.6	0.0000338
1791.6	0.0000223
1789.7	0.0000077
1787.8	0.0000081
1785.9	0.0000180
1783.9	0.0000229
1782.0	0.0000217
1780.1	0.0000182
1778.1	0.0000139
1776.2	0.0000261
1774.3	0.0000639
1772.4	0.0000828
1770.4	0.0000493
1768.5	0.0000076
1766.6	-0.0000008
1764.6	0.0000120
1762.7	0.0000210
1760.8	0.0000150
1758.9	0.0000067
1756.9	0.0000080
1755.0	0.0000163
1753.1	0.0000308
1751.1	0.0000393
1749.2	0.0000298
1747.3	0.0000200
1745.4	0.0000198
1743.4	0.0000201
1741.5	0.0000204
1739.6	0.0000222
1737.6	0.0000383
1735.7	0.0000772
1733.8	0.0000927
1731.9	0.0000598
1729.9	0.0000267
1728.0	0.0000213
1726.1	0.0000269
1724.1	0.0000290
1722.2	0.0000345
1720.3	0.0000732
1718.4	0.0001342
1716.4	0.0001442
1714.5	0.0000905
1712.6	0.0000407
1710.6	0.0000235
1708.7	0.0000298
1706.8	0.0000506
1704.9	0.0000710
1702.9	0.0000891
1701.0	0.0001027
1699.1	0.0000965
1697.1	0.0000807
1695.2	0.0000613
1693.3	0.0000287
1691.4	0.0000028
1689.4	0.0000095
1687.5	0.0000760
1685.6	0.0001705
1683.6	0.0001821
1681.7	0.0001122
1679.8	0.0000649
1677.9	0.0000718
1675.9	0.0000948
1674.0	0.0000947
1672.1	0.0000838
1670.1	0.0000831
1668.2	0.0000706
1666.3	0.0000484
1664.4	0.0000429
1662.4	0.0000429
1660.5	0.0000334
1658.6	0.0000326
1656.6	0.0000904
1654.7	0.0002205
1652.8	0.0002919
1650.9	0.0002237
1648.9	0.0001604
1647.0	0.0001668
1645.1	0.0001479
1643.1	0.0001001
1641.2	0.0000851
1639.3	0.0001009
1637.4	0.0001269
1635.4	0.0001442
1633.5	0.0001362
1631.6	0.0001215
1629.6	0.0001157
1627.7	0.0001105
1625.8	0.0001027
1623.9	0.0000937
1621.9	0.0000864
1620.0	0.0001083
1618.1	0.0001622
1616.1	0.0001759
1614.2	0.0001270
1612.3	0.0000858
1610.4	0.0000735
1608.4	0.0000600
1606.5	0.0000411
1604.6	0.0000310
1602.6	0.0000327
1600.7	0.0000365
1598.8	0.0000394
1596.9	0.0000414
1594.9	0.0000373
1593.0	0.0000298
1591.1	0.0000233
1589.1	0.0000146
1587.2	0.0000037
1585.3	-0.0000034
1583.4	-0.0000034
1581.4	0.0000067
1579.5	0.0000488
1577.6	0.0001241
1575.6	0.0001563
1573.7	0.0001220
1571.8	0.0000998
1569.9	0.0000987
1567.9	0.0000792
1566.0	0.0000559
1564.1	0.0000419
1562.1	0.0000523
1560.2	0.0001024
1558.3	0.0001368
1556.4	0.0001106
1554.4	0.0000636
1552.5	0.0000301
1550.6	0.0000117
1548.6	0.0000109
1546.7	0.0000304
1544.8	0.0000717
1542.9	0.0001303
1540.9	0.0001645
1539.0	0.0001259
1537.1	0.0000631
1535.1	0.0000489
1533.2	0.0000521
1531.3	0.0000310
1529.4	0.0000100
1527.4	0.0000041
1525.5	0.0000076
1523.6	0.0000263
1521.6	0.0000442
1519.7	0.0000380
1517.8	0.0000190
1515.9	0.0000012
1513.9	-0.0000112
1512.0	-0.0000023
1510.1	0.0000532
1508.1	0.0001438
1506.2	0.0001789
1504.3	0.0001109
1502.4	0.0000366
1500.4	0.0000242
1498.5	0.0000301
1496.6	0.0000223
1494.6	0.0000190
1492.7	0.0000403
1490.8	0.0000741
1488.9	0.0000887
1486.9	0.0000774
1485.0	0.0000614
1483.1	0.0000575
1481.1	0.0000634
1479.2	0.0000731
1477.3	0.0000793
1475.4	0.0000786
1473.4	0.0000758
1471.5	0.0000658
1469.6	0.0000525
1467.6	0.0000682
1465.7	0.0001146
1463.8	0.0001389
1461.9	0.0001213
1459.9	0.0001104
1458.0	0.0001222
1456.1	0.0001024
1454.1	0.0000491
1452.2	0.0000188
1450.3	0.0000183
1448.4	0.0000233
1446.4	0.0000199
1444.5	0.0000152
1442.6	0.0000196
1440.6	0.0000313
1438.7	0.0000574
1436.8	0.0001027
1434.9	0.0001869
1432.9	0.0002667
1431.0	0.0002359
1429.1	0.0001384
1427.1	0.0000822
1425.2	0.0000616
1423.3	0.0000566
1421.4	0.0000721
1419.4	0.0000769
1417.5	0.0000477
1415.6	0.0000185
1413.6	0.0000118
1411.7	0.0000107
1409.8	0.0000092
1407.9	0.0000128
1405.9	0.0000183
1404.0	0.0000191
1402.1	0.0000241
1400.1	0.0000362
1398.2	0.0000397
1396.3	0.0000349
1394.4	0.0000248
1392.4	0.0000074
1390.5	-0.0000050
1388.6	-0.0000048
1386.6	-0.0000001
1384.7	0.0000029
1382.8	0.0000058
1380.9	0.0000080
1378.9	0.0000093
1377.0	0.0000129
1375.1	0.0000180
1373.1	0.0000222
1371.2	0.0000299
1369.3	0.0000416
1367.4	0.0000498
1365.4	0.0000530
1363.5	0.0000568
1361.6	0.0000593
1359.6	0.0000559
1357.7	0.0000533
1355.8	0.0000580
1353.9	0.0000665
1351.9	0.0000762
1350.0	0.0000792
1348.1	0.0000668
1346.1	0.0000463
1344.2	0.0000312
1342.3	0.0000240
1340.4	0.0000209
1338.4	0.0000171
1336.5	0.0000138
1334.6	0.0000176
1332.6	0.0000251
1330.7	0.0000271
1328.8	0.0000252
1326.9	0.0000241
1324.9	0.0000208
1323.0	0.0000120
1321.1	0.0000031
1319.1	0.0000007
1317.2	0.0000026
1315.3	0.0000039
1313.4	0.0000060
1311.4	0.0000112
1309.5	0.0000151
1307.6	0.0000158
1305.6	0.0000121
1303.7	0.0000053
1301.8	0.0000042
1299.9	0.0000039
1297.9	-0.0000038
1296.0	-0.0000056
1294.1	0.0000028
1292.1	0.0000091
1290.2	0.0000113
1288.3	0.0000130
1286.4	0.0000172
1284.4	0.0000218
1282.5	0.0000217
1280.6	0.0000207
1278.6	0.0000186
1276.7	0.0000118
1274.8	0.0000078
1272.9	0.0000091
1270.9	0.0000087
1269.0	0.0000076
1267.1	0.0000125
1265.1	0.0000217
1263.2	0.0000279
1261.3	0.0000298
1259.4	0.0000319
1257.4	0.0000362
1255.5	0.0000372
1253.6	0.0000335
1251.6	0.0000297
1249.7	0.0000313
1247.8	0.0000429
1245.9	0.0000559
1243.9	0.0000594
1242.0	0.0000594
1240.1	0.0000607
1238.1	0.0000564
1236.2	0.0000468
1234.3	0.0000376
1232.4	0.0000310
1230.4	0.0000315
1228.5	0.0000390
1226.6	0.0000436
1224.6	0.0000419
1222.7	0.0000432
1220.8	0.0000488
1218.9	0.0000500
1216.9	0.0000514
1215.0	0.0000595
1213.1	0.0000655
1211.1	0.0000655
1209.2	0.0000601
1207.3	0.0000489
1205.4	0.0000428
1203.4	0.0000463
1201.5	0.0000499
1199.6	0.0000530
1197.6	0.0000595
1195.7	0.0000648
1193.8	0.0000631
1191.9	0.0000570
1189.9	0.0000501
1188.0	0.0000419
1186.1	0.0000344
1184.1	0.0000248
1182.2	0.0000131
1180.3	0.0000176
1178.4	0.0000387
1176.4	0.0000513
1174.5	0.0000478
1172.6	0.0000371
1170.6	0.0000252
1168.7	0.0000186
1166.8	0.0000159
1164.9	0.0000101
1162.9	0.0000112
1161.0	0.0000218
1159.1	0.0000256
1157.1	0.0000246
1155.2	0.0000303
1153.3	0.0000332
1151.4	0.0000257
1149.4	0.0000175
1147.5	0.0000120
1145.6	0.0000046
1143.6	-0.0000005
1141.7	0.0000071
1139.8	0.0000243
1137.9	0.0000317
1135.9	0.0000249
1134.0	0.0000193
1132.1	0.0000233
1130.1	0.0000305
1128.2	0.0000264
1126.3	0.0000171
1124.4	0.0000220
1122.4	0.0000348
1120.5	0.0000344
1118.6	0.0000205
1116.6	0.0000142
1114.7	0.0000214
1112.8	0.0000257
1110.9	0.0000219
1108.9	0.0000240
1107.0	0.0000377
1105.1	0.0000507
1103.1	0.0000541
1101.2	0.0000486
1099.3	0.0000367
1097.4	0.0000259
1095.4	0.0000254
1093.5	0.0000397
1091.6	0.0000559
1089.6	0.0000564
1087.7	0.0000507
1085.8	0.0000539
1083.9	0.0000554
1081.9	0.0000401
1080.0	0.0000131
1078.1	-0.0000055
1076.1	0.0000031
1074.2	0.0000326
1072.3	0.0000554
1070.4	0.0000621
1068.4	0.0000591
1066.5	0.0000492
1064.6	0.0000388
1062.6	0.0000326
1060.7	0.0000323
1058.8	0.0000399
1056.9	0.0000503
1054.9	0.0000505
1053.0	0.0000373
1051.1	0.0000277
1049.1	0.0000331
1047.2	0.0000431
1045.3	0.0000486
1043.4	0.0000506
1041.4	0.0000488
1039.5	0.0000461
1037.6	0.0000479
1035.6	0.0000559
1033.7	0.0000699
1031.8	0.0000831
1029.9	0.0000872
1027.9	0.0000904
1026.0	0.0001009
1024.1	0.0001148
1022.1	0.0001244
1020.2	0.0001321
1018.3	0.0001392
1016.4	0.0001368
1014.4	0.0001291
1012.5	0.0001250
1010.6	0.0001183
1008.6	0.0001089
1006.7	0.0001033
1004.8	0.0001020
1002.9	0.0001001
1000.9	0.0000967
999.0	0.0000981
997.1	0.0001036
995.1	0.0001070
993.2	0.0001107
991.3	0.0001161
989.4	0.0001156
987.4	0.0001086
985.5	0.0001059
983.6	0.0001160
981.6	0.0001329
979.7	0.0001412
977.8	0.0001396
975.9	0.0001460
973.9	0.0001586
972.0	0.0001547
970.1	0.0001377
968.1	0.0001340
966.2	0.0001433
964.3	0.0001410
962.4	0.0001289
960.4	0.0001305
958.5	0.0001446
956.6	0.0001549
954.6	0.0001574
952.7	0.0001492
950.8	0.0001331
948.9	0.0001208
946.9	0.0001175
945.0	0.0001223
943.1	0.0001245
941.1	0.0001162
939.2	0.0001100
937.3	0.0001122
935.4	0.0001058
933.4	0.0000917
931.5	0.0000856
929.6	0.0000773
927.6	0.0000563
925.7	0.0000459
923.8	0.0000592
921.9	0.0000751
919.9	0.0000756
918.0	0.0000674
916.1	0.0000628
914.1	0.0000670
912.2	0.0000694
910.3	0.0000530
908.4	0.0000305
906.4	0.0000307
904.5	0.0000459
902.6	0.0000467
900.6	0.0000247
898.7	-0.0000038
896.8	-0.0000064
894.9	0.0000228
892.9	0.0000517
891.0	0.0000645
889.1	0.0000708
887.1	0.0000777
885.2	0.0000789
883.3	0.0000725
881.4	0.0000659
879.4	0.0000532
877.5	0.0000413
875.6	0.0000407
873.6	0.0000265
871.7	0.0000032
869.8	0.0000042
867.9	0.0000111
865.9	0.0000018
864.0	-0.0000074
862.1	-0.0000048
860.1	0.0000140
858.2	0.0000479
856.3	0.0000778
854.4	0.0000786
852.4	0.0000567
850.5	0.0000453
848.6	0.0000535
846.6	0.0000602
844.7	0.0000575
842.8	0.0000681
840.9	0.0000901
838.9	0.0000902
837.0	0.0000702
835.1	0.0000578
833.1	0.0000498
831.2	0.0000387
829.3	0.0000417
827.4	0.0000543
825.4	0.0000562
823.5	0.0000431
821.6	0.0000153
819.6	0.0000009
817.7	0.0000181
815.8	0.0000249
813.9	0.0000038
811.9	-0.0000020
810.0	0.0000140
808.1	0.0000164
806.1	0.0000219
804.2	0.0000312
802.3	-0.0000038
800.4	-0.0000622
798.4	-0.0000915
796.5	-0.0000894
794.6	-0.0000611
792.6	-0.0000164
790.7	-0.0000152
788.8	-0.0000580
786.9	-0.0000550
784.9	-0.0000170
783.0	-0.0000202
781.1	-0.0000317
779.1	-0.0000095
777.2	0.0000073
775.3	0.0000085
773.4	0.0000145
771.4	0.0000163
769.5	0.0000147
767.6	0.0000170
765.6	0.0000101
763.7	-0.0000136
761.8	-0.0000520
759.9	-0.0001187
757.9	-0.0001772
756.0	-0.0001373
754.1	-0.0000505
752.1	-0.0000322
750.2	-0.0000467
748.3	-0.0000346
746.4	-0.0000406
744.4	-0.0000952
742.5	-0.0001639
740.6	-0.0002214
738.6	-0.0002506
736.7	-0.0001918
734.8	-0.0000498
732.9	-0.0000009
730.9	-0.0001054
729.0	-0.0001783
727.1	-0.0001364
725.1	-0.0000663
723.2	-0.0000574
721.3	-0.0001454
719.4	-0.0003348
717.4	-0.0005472
715.5	-0.0005209
713.6	-0.0002091
711.6	-0.0000022
709.7	-0.0000808
707.8	-0.0002173
705.9	-0.0002984
703.9	-0.0003436
702.0	-0.0003064
700.1	-0.0002042
698.1	-0.0001430
696.2	-0.0001699
694.3	-0.0002519
692.4	-0.0003319
690.4	-0.0003271
688.5	-0.0002234
686.6	-0.0001036
684.6	-0.0000298
682.7	-0.0000540
680.8	-0.0001312
678.9	-0.0000811
676.9	0.0000318
675.0	-0.0000166
673.1	-0.0001495
671.1	-0.0001867
669.2	-0.0001709
667.3	-0.0002290
665.4	-0.0003250
663.4	-0.0003238
661.5	-0.0002396
659.6	-0.0002290
657.6	-0.0003411
655.7	-0.0003762
653.8	-0.0002147
651.9	-0.0000668
649.9	-0.0001193
648.0	-0.0002530
646.1	-0.0002935
644.1	-0.0002396
642.2	-0.0001970
640.3	-0.0002982
638.4	-0.0005392
636.4	-0.0006415
634.5	-0.0003940
632.6	-0.0000592
630.6	0.0000573
628.7	0.0000330
626.8	-0.0000361
624.9	-0.0001119
622.9	-0.0001701
621.0	-0.0002725
619.1	-0.0002840
617.1	-0.0000353
615.2	0.0002022
613.3	0.0000294
611.4	-0.0004053
609.4	-0.0006094
607.5	-0.0004819
605.6	-0.0003309
603.6	-0.0003184
601.7	-0.0003339
599.8	-0.0002848
597.9	-0.0002081
595.9	-0.0001878
594.0	-0.0001779
592.1	-0.0001381
590.1	-0.0001300
588.2	-0.0000669
586.3	0.0000656
584.4	0.0000177
582.4	-0.0002658
580.5	-0.0004695
578.6	-0.0005292
576.6	-0.0006724
574.7	-0.0008146
572.8	-0.0008022
570.9	-0.0006475
568.9	-0.0003600
567.0	-0.0001445
565.1	-0.0002227
563.1	-0.0002791
561.2	-0.0000153
559.3	0.0002813
557.4	0.0003463
555.4	0.0002434
553.5	0.0001203
551.6	-0.0000371
549.6	-0.0001901
547.7	-0.0001096
545.8	0.0002087
543.9	0.0004670
541.9	0.0004067
540.0	0.0004281
538.1	0.0010044
536.1	0.0017543
534.2	0.0018950
532.3	0.0011667
530.4	0.0005424
528.4	0.0008613
526.5	0.0008813
524.6	-0.0001240
522.6	0.0002685
520.7	0.0012387
518.8	-0.0033135
516.9	-0.0157382
514.9	-0.0294858
513.0	-0.0285357
511.1	-0.0062244
509.1	0.0156278
507.2	0.0175425
505.3	0.0089495
503.4	0.0026603
501.4	-0.0001658
499.5	-0.0013107
497.6	-0.0012499
495.6	-0.0001235
493.7	0.0004381
491.8	-0.0003620
489.9	-0.0009985
487.9	-0.0005368
486.0	0.0000951
484.1	0.0003374
482.1	0.0006716
480.2	0.0011224
478.3	0.0011199
476.4	0.0006650
474.4	0.0006304
472.5	0.0008850
470.6	0.0005338
468.6	-0.0001196
466.7	-0.0005036
464.8	-0.0005283
462.9	-0.0001368
460.9	0.0002986
459.0	0.0002254
457.1	-0.0000412
455.1	0.0000786
453.2	0.0004188
451.3	0.0005891
449.4	0.0002634
447.4	-0.0005309
445.5	-0.0009169
443.6	-0.0004142
441.6	0.0000396
439.7	-0.0001409
437.8	-0.0003847
435.9	-0.0001393
433.9	0.0006501
432.0	0.0012777
430.1	0.0010930
428.1	0.0004610
426.2	0.0000662
424.3	0.0001695
422.4	0.0005627
420.4	0.0009810
418.5	0.0011060
416.6	0.0006120
414.6	-0.0001497
412.7	-0.0004435
410.8	-0.0002586
408.9	-0.0000597
406.9	0.0001104
405.0	0.0001637
403.1	-0.0001440
401.1	-0.0004497
399.2	-0.0002345
397.3	0.0002488
395.4	0.0003789
393.4	0.0000605
391.5	-0.0003861
389.6	-0.0006405
387.6	-0.0006319
385.7	-0.0005870
383.8	-0.0006312
381.9	-0.0005678
379.9	-0.0004267
378.0	-0.0004983
376.1	-0.0005647
374.1	-0.0003678
372.2	0.0000149
370.3	0.0002212
368.4	-0.0000491
