3997.9	0.0000653
3996.0	0.0000454
3994.1	0.0000377
3992.1	0.0000486
3990.2	0.0000683
3988.3	0.0000707
3986.3	0.0000439
3984.4	0.0000191
3982.5	0.0000169
3980.6	0.0000161
3978.6	0.0000055
3976.7	-0.0000018
3974.8	0.0000026
3972.8	0.0000133
3970.9	0.0000228
3969.0	0.0000280
3967.1	0.0000248
3965.1	0.0000186
3963.2	0.0000213
3961.3	0.0000299
3959.3	0.0000341
3957.4	0.0000350
3955.5	0.0000332
3953.6	0.0000247
3951.6	0.0000062
3949.7	-0.0000175
3947.8	-0.0000323
3945.8	-0.0000327
3943.9	-0.0000258
3942.0	-0.0000124
3940.1	0.0000030
3938.1	0.0000090
3936.2	0.0000071
3934.3	0.0000068
3932.3	0.0000094
3930.4	0.0000103
3928.5	0.0000084
3926.6	0.0000007
3924.6	-0.0000136
3922.7	-0.0000241
3920.8	-0.0000213
3918.8	-0.0000108
3916.9	-0.0000069
3915.0	-0.0000076
3913.1	-0.0000051
3911.1	-0.0000047
3909.2	-0.0000020
3907.3	0.0000047
3905.3	-0.0000010
3903.4	-0.0000105
3901.5	-0.0000049
3899.6	0.0000050
3897.6	0.0000094
3895.7	0.0000104
3893.8	0.0000082
3891.8	0.0000071
3889.9	0.0000050
3888.0	-0.0000037
3886.1	-0.0000108
3884.1	-0.0000029
3882.2	0.0000155
3880.3	0.0000195
3878.3	0.0000031
3876.4	-0.0000073
3874.5	-0.0000043
3872.6	-0.0000173
3870.6	-0.0000425
3868.7	-0.0000417
3866.8	-0.0000233
3864.8	-0.0000064
3862.9	0.0000137
3861.0	0.0000250
3859.1	0.0000193
3857.1	0.0000049
3855.2	-0.0000115
3853.3	-0.0000154
3851.3	0.0000022
3849.4	0.0000197
3847.5	0.0000251
3845.6	0.0000243
3843.6	0.0000112
3841.7	-0.0000163
3839.8	-0.0000473
3837.8	-0.0000526
3835.9	-0.0000085
3834.0	0.0000459
3832.1	0.0000584
3830.1	0.0000390
3828.2	0.0000239
3826.3	0.0000220
3824.3	0.0000190
3822.4	0.0000071
3820.5	-0.0000002
3818.6	0.0000040
3816.6	0.0000028
3814.7	0.0000019
3812.8	0.0000147
3810.8	0.0000141
3808.9	-0.0000160
3807.0	-0.0000395
3805.1	-0.0000399
3803.1	-0.0000467
3801.2	-0.0000537
3799.3	-0.0000428
3797.3	-0.0000304
3795.4	-0.0000156
3793.5	0.0000064
3791.6	0.0000214
3789.6	0.0000270
3787.7	0.0000271
3785.8	0.0000266
3783.8	0.0000243
3781.9	0.0000127
3780.0	-0.0000020
3778.1	-0.0000015
3776.1	0.0000115
3774.2	0.0000171
3772.3	0.0000076
3770.3	-0.0000061
3768.4	-0.0000127
3766.5	-0.0000113
3764.6	-0.0000008
3762.6	0.0000125
3760.7	0.0000140
3758.8	0.0000088
3756.8	0.0000063
3754.9	0.0000054
3753.0	-0.0000018
3751.1	-0.0000143
3749.1	-0.0000219
3747.2	-0.0000388
3745.3	-0.0000619
3743.3	-0.0000542
3741.4	-0.0000287
3739.5	-0.0000295
3737.6	-0.0000451
3735.6	-0.0000311
3733.7	0.0000102
3731.8	0.0000332
3729.8	0.0000275
3727.9	0.0000250
3726.0	0.0000274
3724.1	0.0000098
3722.1	-0.0000170
3720.2	-0.0000262
3718.3	-0.0000200
3716.3	-0.0000188
3714.4	-0.0000273
3712.5	-0.0000263
3710.6	-0.0000090
3708.6	0.0000001
3706.7	-0.0000104
3704.8	-0.0000246
3702.8	-0.0000279
3700.9	-0.0000211
3699.0	-0.0000159
3697.1	-0.0000165
3695.1	-0.0000186
3693.2	-0.0000226
3691.3	-0.0000088
3689.3	0.0000262
3687.4	0.0000315
3685.5	0.0000062
3683.6	-0.0000057
3681.6	-0.0000090
3679.7	-0.0000312
3677.8	-0.0000733
3675.8	-0.0000883
3673.9	-0.0000383
3672.0	0.0000246
3670.1	0.0000304
3668.1	-0.0000036
3666.2	-0.0000209
3664.3	-0.0000185
3662.3	-0.0000122
3660.4	-0.0000044
3658.5	-0.0000011
3656.6	-0.0000027
3654.6	-0.0000063
3652.7	-0.0000197
3650.8	-0.0000488
3648.8	-0.0000675
3646.9	-0.0000502
3645.0	-0.0000215
3643.1	-0.0000043
3641.1	0.0000030
3639.2	0.0000001
3637.3	-0.0000141
3635.3	-0.0000259
3633.4	-0.0000180
3631.5	-0.0000085
3629.6	-0.0000194
3627.6	-0.0000256
3625.7	-0.0000152
3623.8	-0.0000070
3621.8	0.0000005
3619.9	0.0000082
3618.0	0.0000037
3616.1	-0.0000056
3614.1	-0.0000074
3612.2	0.0000042
3610.3	0.0000206
3608.3	0.0000185
3606.4	-0.0000002
3604.5	-0.0000140
3602.6	-0.0000184
3600.6	-0.0000186
3598.7	-0.0000196
3596.8	-0.0000207
3594.8	-0.0000144
3592.9	-0.0000082
3591.0	-0.0000204
3589.1	-0.0000337
3587.1	-0.0000203
3585.2	-0.0000004
3583.3	0.0000023
3581.3	-0.0000006
3579.4	0.0000048
3577.5	0.0000145
3575.6	0.0000183
3573.6	0.0000156
3571.7	0.0000061
3569.8	-0.0000130
3567.8	-0.0000267
3565.9	-0.0000224
3564.0	-0.0000131
3562.1	-0.0000062
3560.1	0.0000043
3558.2	0.0000140
3556.3	0.0000125
3554.3	0.0000019
3552.4	-0.0000088
3550.5	-0.0000144
3548.6	-0.0000071
3546.6	0.0000106
3544.7	0.0000179
3542.8	0.0000097
3540.8	0.0000026
3538.9	0.0000027
3537.0	0.0000062
3535.1	0.0000155
3533.1	0.0000207
3531.2	0.0000097
3529.3	-0.0000087
3527.3	-0.0000164
3525.4	-0.0000060
3523.5	0.0000126
3521.6	0.0000196
3519.6	0.0000115
3517.7	-0.0000007
3515.8	-0.0000120
3513.8	-0.0000173
3511.9	-0.0000139
3510.0	-0.0000107
3508.1	-0.0000117
3506.1	-0.0000118
3504.2	-0.0000118
3502.3	-0.0000138
3500.3	-0.0000150
3498.4	-0.0000145
3496.5	-0.0000128
3494.6	-0.0000104
3492.6	-0.0000131
3490.7	-0.0000219
3488.8	-0.0000261
3486.8	-0.0000192
3484.9	-0.0000089
3483.0	-0.0000038
3481.1	-0.0000020
3479.1	0.0000005
3477.2	-0.0000040
3475.3	-0.0000204
3473.3	-0.0000293
3471.4	-0.0000147
3469.5	0.0000084
3467.6	0.0000146
3465.6	0.0000026
3463.7	-0.0000117
3461.8	-0.0000212
3459.8	-0.0000236
3457.9	-0.0000154
3456.0	-0.0000025
3454.1	0.0000063
3452.1	0.0000071
3450.2	0.0000013
3448.3	-0.0000075
3446.3	-0.0000188
3444.4	-0.0000298
3442.5	-0.0000306
3440.6	-0.0000171
3438.6	0.0000005
3436.7	0.0000075
3434.8	0.0000049
3432.8	0.0000042
3430.9	0.0000044
3429.0	-0.0000043
3427.1	-0.0000180
3425.1	-0.0000202
3423.2	-0.0000120
3421.3	-0.0000042
3419.3	0.0000024
3417.4	0.0000056
3415.5	0.0000067
3413.6	0.0000119
3411.6	0.0000118
3409.7	-0.0000014
3407.8	-0.0000129
3405.8	-0.0000140
3403.9	-0.0000091
3402.0	-0.0000000
3400.1	0.0000077
3398.1	0.0000047
3396.2	-0.0000073
3394.3	-0.0000108
3392.3	0.0000009
3390.4	0.0000073
3388.5	-0.0000015
3386.6	-0.0000124
3384.6	-0.0000129
3382.7	-0.0000030
3380.8	0.0000049
3378.8	0.0000022
3376.9	-0.0000028
3375.0	-0.0000005
3373.1	0.0000037
3371.1	0.0000032
3369.2	0.0000049
3367.3	0.0000098
3365.3	0.0000102
3363.4	0.0000057
3361.5	0.0000015
3359.6	-0.0000002
3357.6	-0.0000012
3355.7	-0.0000048
3353.8	-0.0000063
3351.8	-0.0000055
3349.9	-0.0000111
3348.0	-0.0000156
3346.1	-0.0000093
3344.1	-0.0000037
3342.2	-0.0000025
3340.3	0.0000037
3338.3	0.0000136
3336.4	0.0000188
3334.5	0.0000134
3332.6	-0.0000025
3330.6	-0.0000217
3328.7	-0.0000337
3326.8	-0.0000344
3324.8	-0.0000286
3322.9	-0.0000223
3321.0	-0.0000160
3319.1	-0.0000065
3317.1	0.0000017
3315.2	-0.0000011
3313.3	-0.0000064
3311.3	0.0000016
3309.4	0.0000106
3307.5	0.0000028
3305.6	-0.0000090
3303.6	-0.0000076
3301.7	0.0000015
3299.8	0.0000017
3297.8	-0.0000059
3295.9	-0.0000057
3294.0	0.0000008
3292.1	0.0000040
3290.1	0.0000045
3288.2	0.0000059
3286.3	0.0000114
3284.3	0.0000147
3282.4	0.0000084
3280.5	0.0000025
3278.6	0.0000070
3276.6	0.0000166
3274.7	0.0000211
3272.8	0.0000188
3270.8	0.0000139
3268.9	0.0000072
3267.0	0.0000009
3265.1	-0.0000007
3263.1	0.0000027
3261.2	0.0000080
3259.3	0.0000117
3257.3	0.0000069
3255.4	-0.0000058
3253.5	-0.0000137
3251.6	-0.0000114
3249.6	-0.0000057
3247.7	-0.0000049
3245.8	-0.0000107
3243.8	-0.0000189
3241.9	-0.0000263
3240.0	-0.0000249
3238.1	-0.0000104
3236.1	0.0000059
3234.2	0.0000127
3232.3	0.0000116
3230.3	0.0000080
3228.4	0.0000070
3226.5	0.0000059
3224.6	-0.0000005
3222.6	-0.0000027
3220.7	0.0000034
3218.8	0.0000050
3216.8	-0.0000025
3214.9	-0.0000082
3213.0	-0.0000061
3211.1	-0.0000063
3209.1	-0.0000148
3207.2	-0.0000220
3205.3	-0.0000198
3203.3	-0.0000097
3201.4	-0.0000007
3199.5	0.0000008
3197.6	-0.0000012
3195.6	-0.0000001
3193.7	0.0000039
3191.8	0.0000057
3189.8	0.0000022
3187.9	-0.0000039
3186.0	-0.0000066
3184.1	-0.0000032
3182.1	0.0000015
3180.2	0.0000021
3178.3	0.0000012
3176.3	0.0000019
3174.4	0.0000020
3172.5	0.0000018
3170.6	0.0000046
3168.6	0.0000122
3166.7	0.0000192
3164.8	0.0000211
3162.8	0.0000220
3160.9	0.0000207
3159.0	0.0000145
3157.1	0.0000105
3155.1	0.0000106
3153.2	0.0000122
3151.3	0.0000169
3149.3	0.0000223
3147.4	0.0000250
3145.5	0.0000243
3143.6	0.0000207
3141.6	0.0000212
3139.7	0.0000257
3137.8	0.0000218
3135.8	0.0000132
3133.9	0.0000167
3132.0	0.0000254
3130.1	0.0000218
3128.1	0.0000145
3126.2	0.0000187
3124.3	0.0000290
3122.3	0.0000309
3120.4	0.0000240
3118.5	0.0000209
3116.6	0.0000252
3114.6	0.0000277
3112.7	0.0000250
3110.8	0.0000194
3108.8	0.0000124
3106.9	0.0000054
3105.0	0.0000039
3103.1	0.0000095
3101.1	0.0000177
3099.2	0.0000234
3097.3	0.0000164
3095.3	0.0000033
3093.4	0.0000058
3091.5	0.0000207
3089.6	0.0000264
3087.6	0.0000187
3085.7	0.0000132
3083.8	0.0000197
3081.8	0.0000269
3079.9	0.0000197
3078.0	0.0000054
3076.1	0.0000048
3074.1	0.0000156
3072.2	0.0000202
3070.3	0.0000155
3068.3	0.0000093
3066.4	0.0000101
3064.5	0.0000178
3062.6	0.0000255
3060.6	0.0000270
3058.7	0.0000213
3056.8	0.0000195
3054.8	0.0000275
3052.9	0.0000317
3051.0	0.0000249
3049.1	0.0000188
3047.1	0.0000226
3045.2	0.0000309
3043.3	0.0000350
3041.3	0.0000302
3039.4	0.0000214
3037.5	0.0000195
3035.6	0.0000231
3033.6	0.0000224
3031.7	0.0000172
3029.8	0.0000155
3027.8	0.0000194
3025.9	0.0000200
3024.0	0.0000123
3022.1	0.0000053
3020.1	-0.0000005
3018.2	-0.0000130
3016.3	-0.0000208
3014.3	-0.0000099
3012.4	0.0000088
3010.5	0.0000184
3008.6	0.0000208
3006.6	0.0000272
3004.7	0.0000358
3002.8	0.0000378
3000.8	0.0000344
2998.9	0.0000319
2997.0	0.0000302
2995.1	0.0000265
2993.1	0.0000187
2991.2	0.0000063
2989.3	0.0000004
2987.3	0.0000064
2985.4	0.0000106
2983.5	0.0000080
2981.6	0.0000045
2979.6	0.0000027
2977.7	0.0000035
2975.8	0.0000068
2973.8	0.0000144
2971.9	0.0000222
2970.0	0.0000214
2968.1	0.0000171
2966.1	0.0000175
2964.2	0.0000148
2962.3	0.0000051
2960.3	0.0000026
2958.4	0.0000141
2956.5	0.0000244
2954.6	0.0000240
2952.6	0.0000210
2950.7	0.0000195
2948.8	0.0000192
2946.8	0.0000199
2944.9	0.0000164
2943.0	0.0000086
2941.1	0.0000046
2939.1	0.0000060
2937.2	0.0000110
2935.3	0.0000176
2933.3	0.0000206
2931.4	0.0000149
2929.5	0.0000044
2927.6	0.0000014
2925.6	0.0000089
2923.7	0.0000175
2921.8	0.0000242
2919.8	0.0000273
2917.9	0.0000227
2916.0	0.0000136
2914.1	0.0000074
2912.1	0.0000072
2910.2	0.0000090
2908.3	0.0000103
2906.3	0.0000154
2904.4	0.0000195
2902.5	0.0000148
2900.6	0.0000089
2898.6	0.0000113
2896.7	0.0000162
2894.8	0.0000179
2892.8	0.0000197
2890.9	0.0000215
2889.0	0.0000213
2887.1	0.0000231
2885.1	0.0000285
2883.2	0.0000306
2881.3	0.0000248
2879.3	0.0000148
2877.4	0.0000097
2875.5	0.0000125
2873.6	0.0000148
2871.6	0.0000118
2869.7	0.0000117
2867.8	0.0000218
2865.8	0.0000318
2863.9	0.0000299
2862.0	0.0000226
2860.1	0.0000210
2858.1	0.0000203
2856.2	0.0000182
2854.3	0.0000217
2852.3	0.0000264
2850.4	0.0000238
2848.5	0.0000169
2846.6	0.0000128
2844.6	0.0000160
2842.7	0.0000228
2840.8	0.0000237
2838.8	0.0000178
2836.9	0.0000110
2835.0	0.0000088
2833.1	0.0000132
2831.1	0.0000189
2829.2	0.0000200
2827.3	0.0000169
2825.3	0.0000133
2823.4	0.0000124
2821.5	0.0000151
2819.6	0.0000152
2817.6	0.0000101
2815.7	0.0000098
2813.8	0.0000153
2811.8	0.0000161
2809.9	0.0000121
2808.0	0.0000084
2806.1	0.0000081
2804.1	0.0000131
2802.2	0.0000188
2800.3	0.0000221
2798.3	0.0000247
2796.4	0.0000226
2794.5	0.0000138
2792.6	0.0000092
2790.6	0.0000121
2788.7	0.0000123
2786.8	0.0000078
2784.8	0.0000046
2782.9	0.0000037
2781.0	0.0000024
2779.1	-0.0000026
2777.1	-0.0000052
2775.2	0.0000023
2773.3	0.0000095
2771.3	0.0000082
2769.4	0.0000055
2767.5	0.0000031
2765.6	0.0000025
2763.6	0.0000088
2761.7	0.0000176
2759.8	0.0000184
2757.8	0.0000108
2755.9	0.0000011
2754.0	-0.0000076
2752.1	-0.0000116
2750.1	-0.0000095
2748.2	-0.0000033
2746.3	0.0000037
2744.3	0.0000066
2742.4	0.0000087
2740.5	0.0000095
2738.6	0.0000045
2736.6	0.0000002
2734.7	0.0000045
2732.8	0.0000095
2730.8	0.0000078
2728.9	0.0000050
2727.0	0.0000053
2725.1	0.0000040
2723.1	-0.0000023
2721.2	-0.0000056
2719.3	-0.0000010
2717.3	0.0000034
2715.4	0.0000050
2713.5	0.0000086
2711.6	0.0000126
2709.6	0.0000121
2707.7	0.0000063
2705.8	-0.0000008
2703.8	-0.0000072
2701.9	-0.0000129
2700.0	-0.0000174
2698.1	-0.0000221
2696.1	-0.0000244
2694.2	-0.0000197
2692.3	-0.0000101
2690.3	-0.0000013
2688.4	0.0000037
2686.5	0.0000032
2684.6	-0.0000024
2682.6	-0.0000083
2680.7	-0.0000105
2678.8	-0.0000091
2676.8	-0.0000052
2674.9	0.0000009
2673.0	0.0000074
2671.1	0.0000094
2669.1	0.0000070
2667.2	0.0000065
2665.3	0.0000074
2663.3	0.0000066
2661.4	0.0000051
2659.5	0.0000038
2657.6	0.0000006
2655.6	-0.0000014
2653.7	0.0000028
2651.8	0.0000109
2649.8	0.0000153
2647.9	0.0000101
2646.0	-0.0000016
2644.1	-0.0000100
2642.1	-0.0000112
2640.2	-0.0000074
2638.3	-0.0000034
2636.3	-0.0000039
2634.4	-0.0000067
2632.5	-0.0000069
2630.6	-0.0000049
2628.6	-0.0000047
2626.7	-0.0000065
2624.8	-0.0000070
2622.8	-0.0000052
2620.9	-0.0000026
2619.0	-0.0000001
2617.1	0.0000003
2615.1	-0.0000007
2613.2	0.0000005
2611.3	0.0000024
2609.3	-0.0000008
2607.4	-0.0000091
2605.5	-0.0000127
2603.6	-0.0000110
2601.6	-0.0000141
2599.7	-0.0000192
2597.8	-0.0000165
2595.8	-0.0000085
2593.9	-0.0000025
2592.0	0.0000020
2590.1	0.0000065
2588.1	0.0000074
2586.2	0.0000031
2584.3	-0.0000030
2582.3	-0.0000060
2580.4	-0.0000048
2578.5	-0.0000019
2576.6	0.0000006
2574.6	0.0000011
2572.7	-0.0000023
2570.8	-0.0000046
2568.8	0.0000005
2566.9	0.0000078
2565.0	0.0000086
2563.1	-0.0000004
2561.1	-0.0000142
2559.2	-0.0000203
2557.3	-0.0000166
2555.3	-0.0000116
2553.4	-0.0000083
2551.5	-0.0000061
2549.6	-0.0000045
2547.6	-0.0000006
2545.7	0.0000064
2543.8	0.0000103
2541.8	0.0000070
2539.9	0.0000057
2538.0	0.0000099
2536.1	0.0000099
2534.1	0.0000058
2532.2	0.0000042
2530.3	0.0000069
2528.3	0.0000097
2526.4	0.0000076
2524.5	0.0000051
2522.6	0.0000061
2520.6	0.0000078
2518.7	0.0000082
2516.8	0.0000078
2514.8	0.0000059
2512.9	0.0000031
2511.0	0.0000010
2509.1	-0.0000012
2507.1	-0.0000048
2505.2	-0.0000074
2503.3	-0.0000077
2501.3	-0.0000079
2499.4	-0.0000093
2497.5	-0.0000110
2495.6	-0.0000125
2493.6	-0.0000117
2491.7	-0.0000088
2489.8	-0.0000098
2487.8	-0.0000122
2485.9	-0.0000089
2484.0	-0.0000032
2482.1	-0.0000008
2480.1	-0.0000021
2478.2	-0.0000053
2476.3	-0.0000048
2474.3	0.0000018
2472.4	0.0000040
2470.5	0.0000010
2468.6	0.0000007
2466.6	-0.0000030
2464.7	-0.0000125
2462.8	-0.0000148
2460.8	-0.0000065
2458.9	0.0000035
2457.0	0.0000084
2455.1	0.0000068
2453.1	-0.0000006
2451.2	-0.0000072
2449.3	-0.0000054
2447.3	0.0000022
2445.4	0.0000054
2443.5	0.0000011
2441.6	-0.0000031
2439.6	-0.0000045
2437.7	-0.0000034
2435.8	0.0000016
2433.8	0.0000077
2431.9	0.0000057
2430.0	-0.0000041
2428.1	-0.0000093
2426.1	-0.0000067
2424.2	-0.0000006
2422.3	0.0000047
2420.3	0.0000049
2418.4	0.0000001
2416.5	-0.0000057
2414.6	-0.0000082
2412.6	-0.0000077
2410.7	-0.0000063
2408.8	-0.0000054
2406.8	-0.0000044
2404.9	-0.0000025
2403.0	-0.0000013
2401.1	-0.0000015
2399.1	-0.0000009
2397.2	-0.0000013
2395.3	-0.0000051
2393.3	-0.0000071
2391.4	-0.0000034
2389.5	-0.0000016
2387.6	-0.0000051
2385.6	-0.0000113
2383.7	-0.0000179
2381.8	-0.0000218
2379.8	-0.0000213
2377.9	-0.0000228
2376.0	-0.0000318
2374.1	-0.0000467
2372.1	-0.0000681
2370.2	-0.0000946
2368.3	-0.0001199
2366.3	-0.0001387
2364.4	-0.0001487
2362.5	-0.0001522
2360.6	-0.0001516
2358.6	-0.0001433
2356.7	-0.0001240
2354.8	-0.0000982
2352.8	-0.0000712
2350.9	-0.0000492
2349.0	-0.0000421
2347.1	-0.0000533
2345.1	-0.0000767
2343.2	-0.0001043
2341.3	-0.0001242
2339.3	-0.0001285
2337.4	-0.0001192
2335.5	-0.0001019
2333.6	-0.0000859
2331.6	-0.0000818
2329.7	-0.0000838
2327.8	-0.0000770
2325.8	-0.0000634
2323.9	-0.0000522
2322.0	-0.0000457
2320.1	-0.0000435
2318.1	-0.0000415
2316.2	-0.0000355
2314.3	-0.0000283
2312.3	-0.0000229
2310.4	-0.0000185
2308.5	-0.0000132
2306.6	-0.0000069
2304.6	-0.0000015
2302.7	0.0000005
2300.8	-0.0000015
2298.8	-0.0000021
2296.9	0.0000021
2295.0	0.0000050
2293.1	0.0000042
2291.1	0.0000045
2289.2	0.0000059
2287.3	0.0000099
2285.3	0.0000149
2283.4	0.0000113
2281.5	-0.0000003
2279.6	-0.0000081
2277.6	-0.0000079
2275.7	-0.0000019
2273.8	0.0000044
2271.8	0.0000061
2269.9	0.0000062
2268.0	0.0000083
2266.1	0.0000085
2264.1	0.0000052
2262.2	0.0000012
2260.3	0.0000001
2258.3	0.0000041
2256.4	0.0000109
2254.5	0.0000149
2252.6	0.0000143
2250.6	0.0000129
2248.7	0.0000133
2246.8	0.0000124
2244.8	0.0000065
2242.9	-0.0000027
2241.0	-0.0000096
2239.1	-0.0000113
2237.1	-0.0000092
2235.2	-0.0000066
2233.3	-0.0000046
2231.3	-0.0000045
2229.4	-0.0000099
2227.5	-0.0000158
2225.6	-0.0000123
2223.6	-0.0000016
2221.7	0.0000044
2219.8	0.0000006
2217.8	-0.0000072
2215.9	-0.0000124
2214.0	-0.0000146
2212.1	-0.0000155
2210.1	-0.0000154
2208.2	-0.0000133
2206.3	-0.0000082
2204.3	-0.0000012
2202.4	0.0000038
2200.5	0.0000057
2198.6	0.0000082
2196.6	0.0000114
2194.7	0.0000111
2192.8	0.0000098
2190.8	0.0000119
2188.9	0.0000127
2187.0	0.0000063
2185.1	0.0000007
2183.1	0.0000017
2181.2	0.0000032
2179.3	0.0000040
2177.3	0.0000073
2175.4	0.0000099
2173.5	0.0000107
2171.6	0.0000108
2169.6	0.0000084
2167.7	0.0000052
2165.8	0.0000029
2163.8	0.0000031
2161.9	0.0000071
2160.0	0.0000089
2158.1	0.0000040
2156.1	0.0000002
2154.2	0.0000049
2152.3	0.0000116
2150.3	0.0000110
2148.4	0.0000070
2146.5	0.0000071
2144.6	0.0000091
2142.6	0.0000095
2140.7	0.0000090
2138.8	0.0000061
2136.8	-0.0000006
2134.9	-0.0000052
2133.0	-0.0000023
2131.1	0.0000030
2129.1	0.0000047
2127.2	0.0000054
2125.3	0.0000069
2123.3	0.0000059
2121.4	0.0000041
2119.5	0.0000062
2117.6	0.0000113
2115.6	0.0000150
2113.7	0.0000143
2111.8	0.0000105
2109.8	0.0000064
2107.9	0.0000017
2106.0	-0.0000045
2104.1	-0.0000094
2102.1	-0.0000101
2100.2	-0.0000117
2098.3	-0.0000202
2096.3	-0.0000379
2094.4	-0.0000697
2092.5	-0.0001252
2090.6	-0.0002134
2088.6	-0.0003158
2086.7	-0.0003723
2084.8	-0.0003409
2082.8	-0.0002536
2080.9	-0.0001690
2079.0	-0.0001057
2077.1	-0.0000519
2075.1	-0.0000036
2073.2	0.0000361
2071.3	0.0000680
2069.3	0.0000993
2067.4	0.0001357
2065.5	0.0001734
2063.6	0.0002108
2061.6	0.0002553
2059.7	0.0003059
2057.8	0.0003498
2055.8	0.0003804
2053.9	0.0004011
2052.0	0.0004156
2050.1	0.0004252
2048.1	0.0004269
2046.2	0.0004193
2044.3	0.0004047
2042.3	0.0003855
2040.4	0.0003626
2038.5	0.0003366
2036.6	0.0003067
2034.6	0.0002779
2032.7	0.0002540
2030.8	0.0002303
2028.8	0.0002045
2026.9	0.0001803
2025.0	0.0001594
2023.1	0.0001411
2021.1	0.0001218
2019.2	0.0001062
2017.3	0.0000974
2015.3	0.0000867
2013.4	0.0000736
2011.5	0.0000657
2009.6	0.0000596
2007.6	0.0000523
2005.7	0.0000475
2003.8	0.0000432
2001.8	0.0000374
1999.9	0.0000331
1998.0	0.0000264
1996.1	0.0000156
1994.1	0.0000111
1992.2	0.0000163
1990.3	0.0000198
1988.3	0.0000167
1986.4	0.0000139
1984.5	0.0000138
1982.6	0.0000154
1980.6	0.0000186
1978.7	0.0000204
1976.8	0.0000182
1974.8	0.0000191
1972.9	0.0000259
1971.0	0.0000296
1969.1	0.0000249
1967.1	0.0000158
1965.2	0.0000070
1963.3	0.0000017
1961.4	-0.0000013
1959.4	-0.0000016
1957.5	0.0000017
1955.6	0.0000046
1953.6	0.0000044
1951.7	0.0000019
1949.8	0.0000021
1947.9	0.0000055
1945.9	0.0000057
1944.0	0.0000037
1942.1	0.0000032
1940.1	0.0000026
1938.2	0.0000032
1936.3	0.0000056
1934.4	0.0000088
1932.4	0.0000139
1930.5	0.0000175
1928.6	0.0000157
1926.6	0.0000122
1924.7	0.0000102
1922.8	0.0000103
1920.9	0.0000146
1918.9	0.0000204
1917.0	0.0000201
1915.1	0.0000151
1913.1	0.0000144
1911.2	0.0000205
1909.3	0.0000268
1907.4	0.0000257
1905.4	0.0000198
1903.5	0.0000156
1901.6	0.0000152
1899.6	0.0000189
1897.7	0.0000268
1895.8	0.0000340
1893.9	0.0000378
1891.9	0.0000418
1890.0	0.0000461
1888.1	0.0000502
1886.1	0.0000538
1884.2	0.0000571
1882.3	0.0000620
1880.4	0.0000654
1878.4	0.0000636
1876.5	0.0000613
1874.6	0.0000623
1872.6	0.0000687
1870.7	0.0000801
1868.8	0.0000839
1866.9	0.0000779
1864.9	0.0000773
1863.0	0.0000819
1861.1	0.0000827
1859.1	0.0000815
1857.2	0.0000779
1855.3	0.0000714
1853.4	0.0000675
1851.4	0.0000638
1849.5	0.0000546
1847.6	0.0000505
1845.6	0.0000599
1843.7	0.0000638
1841.8	0.0000520
1839.9	0.0000428
1837.9	0.0000443
1836.0	0.0000474
1834.1	0.0000467
1832.1	0.0000409
1830.2	0.0000309
1828.3	0.0000235
1826.4	0.0000220
1824.4	0.0000230
1822.5	0.0000250
1820.6	0.0000290
1818.6	0.0000316
1816.7	0.0000305
1814.8	0.0000295
1812.9	0.0000295
1810.9	0.0000276
1809.0	0.0000268
1807.1	0.0000294
1805.1	0.0000251
1803.2	0.0000104
1801.3	0.0000008
1799.4	0.0000041
1797.4	0.0000091
1795.5	0.0000041
1793.6	-0.0000111
1791.6	-0.0000224
1789.7	-0.0000147
1787.8	0.0000043
1785.9	0.0000174
1783.9	0.0000205
1782.0	0.0000190
1780.1	0.0000173
1778.1	0.0000171
1776.2	0.0000232
1774.3	0.0000372
1772.4	0.0000370
1770.4	0.0000101
1768.5	-0.0000126
1766.6	-0.0000054
1764.6	0.0000107
1762.7	0.0000129
1760.8	0.0000060
1758.9	-0.0000011
1756.9	-0.0000009
1755.0	0.0000087
1753.1	0.0000144
1751.1	0.0000064
1749.2	-0.0000050
1747.3	-0.0000061
1745.4	-0.0000040
1743.4	-0.0000107
1741.5	-0.0000167
1739.6	-0.0000106
1737.6	-0.0000002
1735.7	-0.0000002
1733.8	-0.0000085
1731.9	-0.0000089
1729.9	0.0000015
1728.0	0.0000153
1726.1	0.0000222
1724.1	0.0000187
1722.2	0.0000164
1720.3	0.0000324
1718.4	0.0000633
1716.4	0.0000743
1714.5	0.0000576
1712.6	0.0000440
1710.6	0.0000433
1708.7	0.0000470
1706.8	0.0000553
1704.9	0.0000622
1702.9	0.0000393
1701.0	-0.0000074
1699.1	-0.0000377
1697.1	-0.0000470
1695.2	-0.0000333
1693.3	-0.0000001
1691.4	0.0000162
1689.4	0.0000199
1687.5	0.0000472
1685.6	0.0000816
1683.6	0.0000743
1681.7	0.0000377
1679.8	0.0000172
1677.9	0.0000149
1675.9	0.0000170
1674.0	0.0000170
1672.1	0.0000148
1670.1	0.0000152
1668.2	0.0000149
1666.3	0.0000096
1664.4	0.0000022
1662.4	-0.0000029
1660.5	-0.0000027
1658.6	-0.0000006
1656.6	0.0000108
1654.7	0.0000549
1652.8	0.0000980
1650.9	0.0000859
1648.9	0.0000646
1647.0	0.0000720
1645.1	0.0000699
1643.1	0.0000503
1641.2	0.0000375
1639.3	0.0000222
1637.4	-0.0000075
1635.4	-0.0000208
1633.5	0.0000006
1631.6	0.0000237
1629.6	0.0000261
1627.7	0.0000199
1625.8	0.0000127
1623.9	0.0000051
1621.9	0.0000075
1620.0	0.0000298
1618.1	0.0000641
1616.1	0.0000776
1614.2	0.0000571
1612.3	0.0000369
1610.4	0.0000329
1608.4	0.0000268
1606.5	0.0000176
1604.6	0.0000166
1602.6	0.0000188
1600.7	0.0000129
1598.8	0.0000069
1596.9	0.0000114
1594.9	0.0000174
1593.0	0.0000176
1591.1	0.0000146
1589.1	0.0000132
1587.2	0.0000162
1585.3	0.0000206
1583.4	0.0000224
1581.4	0.0000240
1579.5	0.0000401
1577.6	0.0000739
1575.6	0.0000862
1573.7	0.0000600
1571.8	0.0000324
1569.9	0.0000193
1567.9	0.0000129
1566.0	0.0000176
1564.1	0.0000107
1562.1	-0.0000413
1560.2	-0.0000916
1558.3	-0.0000685
1556.4	-0.0000096
1554.4	0.0000186
1552.5	0.0000197
1550.6	0.0000157
1548.6	0.0000172
1546.7	0.0000264
1544.8	0.0000397
1542.9	0.0000458
1540.9	0.0000199
1539.0	-0.0000180
1537.1	-0.0000140
1535.1	0.0000210
1533.2	0.0000370
1531.3	0.0000250
1529.4	0.0000052
1527.4	-0.0000108
1525.5	-0.0000227
1523.6	-0.0000386
1521.6	-0.0000518
1519.7	-0.0000452
1517.8	-0.0000335
1515.9	-0.0000350
1513.9	-0.0000418
1512.0	-0.0000383
1510.1	-0.0000107
1508.1	0.0000332
1506.2	0.0000564
1504.3	0.0000384
1502.4	0.0000129
1500.4	0.0000043
1498.5	-0.0000116
1496.6	-0.0000274
1494.6	-0.0000108
1492.7	0.0000165
1490.8	0.0000207
1488.9	0.0000114
1486.9	0.0000105
1485.0	0.0000195
1483.1	0.0000283
1481.1	0.0000338
1479.2	0.0000412
1477.3	0.0000385
1475.4	0.0000078
1473.4	-0.0000240
1471.5	-0.0000214
1469.6	-0.0000021
1467.6	0.0000132
1465.7	0.0000299
1463.8	0.0000374
1461.9	0.0000243
1459.9	0.0000049
1458.0	-0.0000064
1456.1	-0.0000109
1454.1	-0.0000108
1452.2	-0.0000034
1450.3	0.0000061
1448.4	0.0000102
1446.4	0.0000080
1444.5	0.0000070
1442.6	0.0000099
1440.6	0.0000034
1438.7	-0.0000128
1436.8	0.0000044
1434.9	0.0000598
1432.9	0.0000544
1431.0	-0.0000202
1429.1	-0.0000420
1427.1	-0.0000078
1425.2	0.0000085
1423.3	0.0000139
1421.4	0.0000217
1419.4	0.0000156
1417.5	0.0000011
1415.6	-0.0000023
1413.6	0.0000014
1411.7	-0.0000026
1409.8	-0.0000113
1407.9	-0.0000139
1405.9	-0.0000107
1404.0	-0.0000076
1402.1	-0.0000020
1400.1	0.0000077
1398.2	0.0000116
1396.3	0.0000056
1394.4	-0.0000003
1392.4	-0.0000023
1390.5	-0.0000088
1388.6	-0.0000204
1386.6	-0.0000280
1384.7	-0.0000268
1382.8	-0.0000196
1380.9	-0.0000136
1378.9	-0.0000126
1377.0	-0.0000132
1375.1	-0.0000130
1373.1	-0.0000117
1371.2	-0.0000078
1369.3	-0.0000029
1367.4	-0.0000021
1365.4	-0.0000069
1363.5	-0.0000089
1361.6	-0.0000003
1359.6	0.0000076
1357.7	0.0000043
1355.8	-0.0000033
1353.9	-0.0000053
1351.9	-0.0000008
1350.0	0.0000036
1348.1	0.0000038
1346.1	-0.0000007
1344.2	-0.0000070
1342.3	-0.0000103
1340.4	-0.0000103
1338.4	-0.0000097
1336.5	-0.0000092
1334.6	-0.0000078
1332.6	-0.0000024
1330.7	0.0000078
1328.8	0.0000158
1326.9	0.0000163
1324.9	0.0000133
1323.0	0.0000081
1321.1	0.0000006
1319.1	-0.0000057
1317.2	-0.0000078
1315.3	-0.0000071
1313.4	-0.0000046
1311.4	-0.0000005
1309.5	0.0000004
1307.6	-0.0000025
1305.6	-0.0000025
1303.7	0.0000032
1301.8	0.0000094
1299.9	0.0000052
1297.9	-0.0000035
1296.0	-0.0000019
1294.1	0.0000016
1292.1	0.0000004
1290.2	0.0000051
1288.3	0.0000154
1286.4	0.0000224
1284.4	0.0000250
1282.5	0.0000262
1280.6	0.0000262
1278.6	0.0000207
1276.7	0.0000124
1274.8	0.0000104
1272.9	0.0000110
1270.9	0.0000078
1269.0	0.0000077
1267.1	0.0000128
1265.1	0.0000178
1263.2	0.0000245
1261.3	0.0000335
1259.4	0.0000411
1257.4	0.0000460
1255.5	0.0000468
1253.6	0.0000459
1251.6	0.0000483
1249.7	0.0000502
1247.8	0.0000484
1245.9	0.0000454
1243.9	0.0000453
1242.0	0.0000530
1240.1	0.0000604
1238.1	0.0000576
1236.2	0.0000551
1234.3	0.0000574
1232.4	0.0000561
1230.4	0.0000561
1228.5	0.0000619
1226.6	0.0000645
1224.6	0.0000626
1222.7	0.0000689
1220.8	0.0000791
1218.9	0.0000729
1216.9	0.0000586
1215.0	0.0000557
1213.1	0.0000568
1211.1	0.0000534
1209.2	0.0000491
1207.3	0.0000477
1205.4	0.0000539
1203.4	0.0000639
1201.5	0.0000707
1199.6	0.0000727
1197.6	0.0000677
1195.7	0.0000642
1193.8	0.0000730
1191.9	0.0000837
1189.9	0.0000858
1188.0	0.0000843
1186.1	0.0000751
1184.1	0.0000452
1182.2	0.0000198
1180.3	0.0000406
1178.4	0.0000859
1176.4	0.0001018
1174.5	0.0000843
1172.6	0.0000615
1170.6	0.0000470
1168.7	0.0000409
1166.8	0.0000444
1164.9	0.0000529
1162.9	0.0000581
1161.0	0.0000587
1159.1	0.0000581
1157.1	0.0000566
1155.2	0.0000529
1153.3	0.0000467
1151.4	0.0000383
1149.4	0.0000274
1147.5	0.0000132
1145.6	0.0000010
1143.6	0.0000073
1141.7	0.0000356
1139.8	0.0000644
1137.9	0.0000710
1135.9	0.0000557
1134.0	0.0000399
1132.1	0.0000386
1130.1	0.0000469
1128.2	0.0000508
1126.3	0.0000472
1124.4	0.0000464
1122.4	0.0000496
1120.5	0.0000487
1118.6	0.0000459
1116.6	0.0000492
1114.7	0.0000526
1112.8	0.0000457
1110.9	0.0000389
1108.9	0.0000410
1107.0	0.0000399
1105.1	0.0000276
1103.1	0.0000177
1101.2	0.0000213
1099.3	0.0000276
1097.4	0.0000231
1095.4	0.0000135
1093.5	0.0000119
1091.6	0.0000156
1089.6	0.0000116
1087.7	0.0000039
1085.8	0.0000047
1083.9	0.0000098
1081.9	0.0000050
1080.0	-0.0000079
1078.1	-0.0000132
1076.1	-0.0000068
1074.2	0.0000042
1072.3	0.0000140
1070.4	0.0000196
1068.4	0.0000175
1066.5	0.0000109
1064.6	0.0000077
1062.6	0.0000039
1060.7	0.0000007
1058.8	0.0000048
1056.9	0.0000123
1054.9	0.0000161
1053.0	0.0000148
1051.1	0.0000123
1049.1	0.0000078
1047.2	0.0000011
1045.3	-0.0000024
1043.4	-0.0000035
1041.4	-0.0000035
1039.5	0.0000012
1037.6	0.0000106
1035.6	0.0000214
1033.7	0.0000316
1031.8	0.0000343
1029.9	0.0000249
1027.9	0.0000189
1026.0	0.0000306
1024.1	0.0000408
1022.1	0.0000311
1020.2	0.0000239
1018.3	0.0000351
1016.4	0.0000456
1014.4	0.0000428
1012.5	0.0000390
1010.6	0.0000446
1008.6	0.0000531
1006.7	0.0000576
1004.8	0.0000647
1002.9	0.0000736
1000.9	0.0000743
999.0	0.0000704
997.1	0.0000685
995.1	0.0000666
993.2	0.0000661
991.3	0.0000704
989.4	0.0000751
987.4	0.0000763
985.5	0.0000772
983.6	0.0000857
981.6	0.0001056
979.7	0.0001176
977.8	0.0001049
975.9	0.0000877
973.9	0.0000868
972.0	0.0000922
970.1	0.0000889
968.1	0.0000826
966.2	0.0000805
964.3	0.0000738
962.4	0.0000660
960.4	0.0000727
958.5	0.0000822
956.6	0.0000743
954.6	0.0000592
952.7	0.0000521
950.8	0.0000489
948.9	0.0000425
946.9	0.0000342
945.0	0.0000326
943.1	0.0000442
941.1	0.0000546
939.2	0.0000465
937.3	0.0000270
935.4	0.0000149
933.4	0.0000216
931.5	0.0000461
929.6	0.0000685
927.6	0.0000645
925.7	0.0000416
923.8	0.0000270
921.9	0.0000229
919.9	0.0000225
918.0	0.0000222
916.1	0.0000132
914.1	0.0000045
912.2	0.0000104
910.3	0.0000191
908.4	0.0000180
906.4	0.0000184
904.5	0.0000264
902.6	0.0000323
900.6	0.0000283
898.7	0.0000123
896.8	-0.0000058
894.9	-0.0000108
892.9	0.0000007
891.0	0.0000205
889.1	0.0000343
887.1	0.0000376
885.2	0.0000423
883.3	0.0000476
881.4	0.0000363
879.4	0.0000127
877.5	0.0000077
875.6	0.0000233
873.6	0.0000264
871.7	0.0000140
869.8	0.0000128
867.9	0.0000242
865.9	0.0000317
864.0	0.0000212
862.1	-0.0000029
860.1	-0.0000117
858.2	0.0000086
856.3	0.0000261
854.4	0.0000167
852.4	0.0000100
850.5	0.0000237
848.6	0.0000461
846.6	0.0000590
844.7	0.0000571
842.8	0.0000527
840.9	0.0000379
838.9	0.0000199
837.0	0.0000209
835.1	0.0000241
833.1	0.0000137
831.2	0.0000025
829.3	0.0000036
827.4	0.0000122
825.4	0.0000099
823.5	-0.0000157
821.6	-0.0000373
819.6	-0.0000166
817.7	0.0000275
815.8	0.0000363
813.9	-0.0000095
811.9	-0.0000647
810.0	-0.0000861
808.1	-0.0000536
806.1	0.0000164
804.2	0.0000544
802.3	0.0000271
800.4	-0.0000250
798.4	-0.0000568
796.5	-0.0000422
794.6	0.0000244
792.6	0.0000802
790.7	0.0000528
788.8	-0.0000078
786.9	-0.0000111
784.9	0.0000098
783.0	0.0000009
781.1	0.0000033
779.1	0.0000184
777.2	-0.0000068
775.3	-0.0000470
773.4	-0.0000406
771.4	0.0000056
769.5	0.0000407
767.6	0.0000475
765.6	0.0000793
763.7	0.0001421
761.8	0.0001146
759.9	-0.0000030
757.9	-0.0000515
756.0	-0.0000068
754.1	0.0000284
752.1	0.0000217
750.2	0.0000224
748.3	0.0000612
746.4	0.0001134
744.4	0.0001126
742.5	0.0000424
740.6	-0.0000327
738.6	-0.0000801
736.7	-0.0000974
734.8	-0.0000569
732.9	0.0000150
730.9	0.0000095
729.0	-0.0000579
727.1	-0.0000450
725.1	0.0000584
723.2	0.0001218
721.3	0.0000818
719.4	-0.0000514
717.4	-0.0002058
715.5	-0.0001652
713.6	0.0000573
711.6	0.0001632
709.7	0.0001173
707.8	0.0000519
705.9	-0.0000516
703.9	-0.0001639
702.0	-0.0001635
700.1	-0.0000803
698.1	-0.0000437
696.2	-0.0000554
694.3	-0.0000270
692.4	-0.0000160
690.4	-0.0000758
688.5	-0.0000915
686.6	-0.0000358
684.6	0.0000456
682.7	0.0000488
680.8	-0.0000788
678.9	-0.0001617
676.9	-0.0001134
675.0	-0.0000636
673.1	-0.0000710
671.1	-0.0000435
669.2	0.0000000
667.3	-0.0000244
665.4	-0.0000633
663.4	-0.0000485
661.5	-0.0000607
659.6	-0.0001467
657.6	-0.0001573
655.7	-0.0000856
653.8	-0.0000292
651.9	0.0000261
649.9	0.0001013
648.0	0.0001517
646.1	0.0001069
644.1	0.0000503
642.2	0.0000550
640.3	0.0000510
638.4	-0.0000721
636.4	-0.0001880
634.5	-0.0000386
632.6	0.0001636
630.6	0.0001593
628.7	0.0000965
626.8	0.0001574
624.9	0.0002227
622.9	0.0000871
621.0	-0.0001322
619.1	-0.0001647
617.1	0.0000790
615.2	0.0002934
613.3	0.0001727
611.4	-0.0001965
609.4	-0.0004864
607.5	-0.0004318
605.6	-0.0002211
603.6	-0.0001320
601.7	-0.0000760
599.8	0.0000970
597.9	0.0001780
595.9	0.0000290
594.0	-0.0001086
592.1	-0.0001226
590.1	-0.0000403
588.2	0.0000156
586.3	-0.0000065
584.4	-0.0000034
582.4	0.0000157
580.5	-0.0001267
578.6	-0.0004378
576.6	-0.0006080
574.7	-0.0006728
572.8	-0.0006696
570.9	-0.0004998
568.9	-0.0003098
567.0	-0.0001648
565.1	-0.0000908
563.1	0.0000625
561.2	0.0003058
559.3	0.0003589
557.4	0.0001136
555.4	-0.0000613
553.5	0.0001076
551.6	0.0002542
549.6	0.0002057
547.7	0.0000664
545.8	0.0000873
543.9	0.0002470
541.9	0.0002298
540.0	0.0001868
538.1	0.0004299
536.1	0.0008994
534.2	0.0009538
532.3	0.0002429
530.4	-0.0012476
528.4	-0.0027555
526.5	-0.0031880
524.6	-0.0027297
522.6	-0.0012965
520.7	0.0015910
518.8	0.0031684
516.9	-0.0010744
514.9	-0.0008060
513.0	0.0182393
511.1	0.0363277
509.1	0.0282253
507.2	0.0090324
505.3	-0.0003271
503.4	0.0000630
501.4	0.0014729
499.5	0.0011544
497.6	0.0005165
495.6	-0.0001959
493.7	-0.0000220
491.8	0.0009267
489.9	0.0009316
487.9	-0.0001730
486.0	-0.0008234
484.1	-0.0003337
482.1	0.0003173
480.2	0.0006357
478.3	0.0005859
476.4	0.0001979
474.4	-0.0002300
472.5	-0.0005077
470.6	-0.0005731
468.6	-0.0002847
466.7	0.0001953
464.8	0.0003190
462.9	0.0002211
460.9	0.0001110
459.0	-0.0000269
457.1	-0.0000377
455.1	-0.0001403
453.2	-0.0005181
451.3	-0.0006541
449.4	-0.0001689
447.4	0.0001404
445.5	-0.0001988
443.6	-0.0005302
441.6	-0.0003349
439.7	0.0002471
437.8	0.0006552
435.9	0.0007445
433.9	0.0006917
432.0	0.0005414
430.1	0.0002547
428.1	-0.0001581
426.2	-0.0005099
424.3	-0.0006145
422.4	-0.0004146
420.4	-0.0002117
418.5	-0.0003626
416.6	-0.0006632
414.6	-0.0005604
412.7	-0.0000390
410.8	0.0004314
408.9	0.0005832
406.9	0.0005968
405.0	0.0006607
403.1	0.0003602
401.1	-0.0002158
399.2	-0.0005381
397.3	-0.0003426
395.4	0.0003856
393.4	0.0008912
391.5	0.0006791
389.6	0.0000130
387.6	-0.0005439
385.7	-0.0008094
383.8	-0.0009522
381.9	-0.0008393
379.9	-0.0006520
378.0	-0.0005999
376.1	-0.0006559
374.1	-0.0006600
372.2	-0.0004143
370.3	-0.0000391
368.4	-0.0000226
