3997.9	-0.0000288
3996.0	-0.0000287
3994.1	-0.0000280
3992.1	-0.0000170
3990.2	0.0000018
3988.3	0.0000050
3986.3	-0.0000160
3984.4	-0.0000342
3982.5	-0.0000321
3980.6	-0.0000242
3978.6	-0.0000193
3976.7	-0.0000118
3974.8	-0.0000042
3972.8	-0.0000007
3970.9	0.0000006
3969.0	-0.0000021
3967.1	-0.0000059
3965.1	-0.0000046
3963.2	0.0000005
3961.3	0.0000064
3959.3	0.0000147
3957.4	0.0000234
3955.5	0.0000224
3953.6	0.0000132
3951.6	0.0000066
3949.7	-0.0000006
3947.8	-0.0000098
3945.8	-0.0000117
3943.9	-0.0000045
3942.0	0.0000053
3940.1	0.0000111
3938.1	0.0000117
3936.2	0.0000126
3934.3	0.0000107
3932.3	-0.0000021
3930.4	-0.0000163
3928.5	-0.0000155
3926.6	-0.0000059
3924.6	-0.0000005
3922.7	-0.0000006
3920.8	0.0000015
3918.8	0.0000105
3916.9	0.0000156
3915.0	0.0000143
3913.1	0.0000178
3911.1	0.0000173
3909.2	0.0000076
3907.3	0.0000040
3905.3	0.0000120
3903.4	0.0000267
3901.5	0.0000390
3899.6	0.0000362
3897.6	0.0000213
3895.7	0.0000129
3893.8	0.0000187
3891.8	0.0000268
3889.9	0.0000253
3888.0	0.0000201
3886.1	0.0000208
3884.1	0.0000275
3882.2	0.0000392
3880.3	0.0000380
3878.3	0.0000180
3876.4	0.0000082
3874.5	0.0000191
3872.6	0.0000314
3870.6	0.0000335
3868.7	0.0000304
3866.8	0.0000297
3864.8	0.0000300
3862.9	0.0000299
3861.0	0.0000269
3859.1	0.0000284
3857.1	0.0000541
3855.2	0.0000946
3853.3	0.0001064
3851.3	0.0000789
3849.4	0.0000466
3847.5	0.0000314
3845.6	0.0000252
3843.6	0.0000180
3841.7	0.0000175
3839.8	0.0000288
3837.8	0.0000401
3835.9	0.0000474
3834.0	0.0000539
3832.1	0.0000519
3830.1	0.0000386
3828.2	0.0000266
3826.3	0.0000261
3824.3	0.0000391
3822.4	0.0000533
3820.5	0.0000492
3818.6	0.0000403
3816.6	0.0000415
3814.7	0.0000362
3812.8	0.0000238
3810.8	0.0000180
3808.9	0.0000201
3807.0	0.0000220
3805.1	0.0000225
3803.1	0.0000294
3801.2	0.0000299
3799.3	0.0000126
3797.3	0.0000025
3795.4	0.0000107
3793.5	0.0000168
3791.6	0.0000149
3789.6	0.0000158
3787.7	0.0000209
3785.8	0.0000284
3783.8	0.0000308
3781.9	0.0000244
3780.0	0.0000167
3778.1	0.0000091
3776.1	0.0000036
3774.2	0.0000066
3772.3	0.0000162
3770.3	0.0000233
3768.4	0.0000218
3766.5	0.0000187
3764.6	0.0000206
3762.6	0.0000210
3760.7	0.0000190
3758.8	0.0000218
3756.8	0.0000257
3754.9	0.0000304
3753.0	0.0000469
3751.1	0.0000672
3749.1	0.0000713
3747.2	0.0000701
3745.3	0.0000757
3743.3	0.0000639
3741.4	0.0000295
3739.5	0.0000054
3737.6	0.0000060
3735.6	0.0000196
3733.7	0.0000333
3731.8	0.0000319
3729.8	0.0000165
3727.9	0.0000115
3726.0	0.0000193
3724.1	0.0000165
3722.1	0.0000030
3720.2	-0.0000040
3718.3	-0.0000006
3716.3	0.0000069
3714.4	0.0000149
3712.5	0.0000197
3710.6	0.0000114
3708.6	-0.0000106
3706.7	-0.0000290
3704.8	-0.0000290
3702.8	-0.0000193
3700.9	-0.0000158
3699.0	-0.0000154
3697.1	-0.0000099
3695.1	-0.0000018
3693.2	0.0000048
3691.3	0.0000211
3689.3	0.0000429
3687.4	0.0000384
3685.5	0.0000127
3683.6	-0.0000016
3681.6	-0.0000056
3679.7	-0.0000111
3677.8	-0.0000078
3675.8	0.0000074
3673.9	0.0000271
3672.0	0.0000457
3670.1	0.0000416
3668.1	0.0000163
3666.2	0.0000001
3664.3	-0.0000074
3662.3	-0.0000118
3660.4	-0.0000052
3658.5	0.0000088
3656.6	0.0000184
3654.6	0.0000193
3652.7	0.0000241
3650.8	0.0000331
3648.8	0.0000257
3646.9	0.0000037
3645.0	-0.0000114
3643.1	-0.0000093
3641.1	-0.0000002
3639.2	0.0000020
3637.3	-0.0000033
3635.3	-0.0000042
3633.4	0.0000097
3631.5	0.0000327
3629.6	0.0000420
3627.6	0.0000297
3625.7	0.0000143
3623.8	0.0000086
3621.8	0.0000152
3619.9	0.0000266
3618.0	0.0000258
3616.1	0.0000190
3614.1	0.0000235
3612.2	0.0000369
3610.3	0.0000477
3608.3	0.0000439
3606.4	0.0000280
3604.5	0.0000188
3602.6	0.0000200
3600.6	0.0000212
3598.7	0.0000207
3596.8	0.0000242
3594.8	0.0000317
3592.9	0.0000338
3591.0	0.0000272
3589.1	0.0000234
3587.1	0.0000266
3585.2	0.0000300
3583.3	0.0000354
3581.3	0.0000452
3579.4	0.0000501
3577.5	0.0000472
3575.6	0.0000416
3573.6	0.0000384
3571.7	0.0000393
3569.8	0.0000421
3567.8	0.0000428
3565.9	0.0000421
3564.0	0.0000446
3562.1	0.0000505
3560.1	0.0000530
3558.2	0.0000510
3556.3	0.0000500
3554.3	0.0000502
3552.4	0.0000464
3550.5	0.0000388
3548.6	0.0000378
3546.6	0.0000470
3544.7	0.0000529
3542.8	0.0000504
3540.8	0.0000517
3538.9	0.0000567
3537.0	0.0000533
3535.1	0.0000486
3533.1	0.0000519
3531.2	0.0000492
3529.3	0.0000332
3527.3	0.0000244
3525.4	0.0000371
3523.5	0.0000567
3521.6	0.0000627
3519.6	0.0000576
3517.7	0.0000517
3515.8	0.0000423
3513.8	0.0000321
3511.9	0.0000311
3510.0	0.0000333
3508.1	0.0000318
3506.1	0.0000337
3504.2	0.0000377
3502.3	0.0000360
3500.3	0.0000334
3498.4	0.0000346
3496.5	0.0000357
3494.6	0.0000298
3492.6	0.0000196
3490.7	0.0000165
3488.8	0.0000201
3486.8	0.0000246
3484.9	0.0000297
3483.0	0.0000318
3481.1	0.0000308
3479.1	0.0000313
3477.2	0.0000318
3475.3	0.0000244
3473.3	0.0000133
3471.4	0.0000150
3469.5	0.0000309
3467.6	0.0000407
3465.6	0.0000335
3463.7	0.0000187
3461.8	0.0000107
3459.8	0.0000120
3457.9	0.0000143
3456.0	0.0000129
3454.1	0.0000115
3452.1	0.0000169
3450.2	0.0000260
3448.3	0.0000258
3446.3	0.0000142
3444.4	0.0000017
3442.5	-0.0000017
3440.6	0.0000047
3438.6	0.0000136
3436.7	0.0000190
3434.8	0.0000157
3432.8	0.0000073
3430.9	0.0000072
3429.0	0.0000138
3427.1	0.0000156
3425.1	0.0000152
3423.2	0.0000196
3421.3	0.0000238
3419.3	0.0000199
3417.4	0.0000097
3415.5	0.0000069
3413.6	0.0000166
3411.6	0.0000237
3409.7	0.0000181
3407.8	0.0000098
3405.8	0.0000067
3403.9	0.0000057
3402.0	0.0000074
3400.1	0.0000129
3398.1	0.0000108
3396.2	-0.0000016
3394.3	-0.0000070
3392.3	0.0000060
3390.4	0.0000206
3388.5	0.0000168
3386.6	0.0000047
3384.6	0.0000061
3382.7	0.0000141
3380.8	0.0000129
3378.8	0.0000082
3376.9	0.0000047
3375.0	-0.0000019
3373.1	-0.0000077
3371.1	-0.0000050
3369.2	0.0000061
3367.3	0.0000161
3365.3	0.0000196
3363.4	0.0000209
3361.5	0.0000232
3359.6	0.0000268
3357.6	0.0000275
3355.7	0.0000209
3353.8	0.0000137
3351.8	0.0000091
3349.9	0.0000014
3348.0	-0.0000027
3346.1	0.0000051
3344.1	0.0000129
3342.2	0.0000127
3340.3	0.0000133
3338.3	0.0000205
3336.4	0.0000287
3334.5	0.0000262
3332.6	0.0000125
3330.6	0.0000010
3328.7	-0.0000045
3326.8	-0.0000104
3324.8	-0.0000134
3322.9	-0.0000089
3321.0	0.0000001
3319.1	0.0000095
3317.1	0.0000125
3315.2	0.0000072
3313.3	0.0000056
3311.3	0.0000121
3309.4	0.0000116
3307.5	-0.0000039
3305.6	-0.0000192
3303.6	-0.0000179
3301.7	-0.0000084
3299.8	-0.0000104
3297.8	-0.0000202
3295.9	-0.0000224
3294.0	-0.0000171
3292.1	-0.0000084
3290.1	-0.0000008
3288.2	0.0000020
3286.3	0.0000044
3284.3	0.0000062
3282.4	0.0000011
3280.5	-0.0000036
3278.6	0.0000057
3276.6	0.0000204
3274.7	0.0000226
3272.8	0.0000181
3270.8	0.0000199
3268.9	0.0000237
3267.0	0.0000182
3265.1	0.0000054
3263.1	-0.0000002
3261.2	0.0000058
3259.3	0.0000110
3257.3	0.0000069
3255.4	-0.0000011
3253.5	-0.0000081
3251.6	-0.0000124
3249.6	-0.0000079
3247.7	0.0000025
3245.8	0.0000081
3243.8	0.0000064
3241.9	-0.0000026
3240.0	-0.0000090
3238.1	-0.0000019
3236.1	0.0000081
3234.2	0.0000105
3232.3	0.0000087
3230.3	0.0000064
3228.4	0.0000082
3226.5	0.0000119
3224.6	0.0000102
3222.6	0.0000092
3220.7	0.0000123
3218.8	0.0000118
3216.8	0.0000064
3214.9	0.0000030
3213.0	0.0000043
3211.1	0.0000051
3209.1	0.0000033
3207.2	0.0000022
3205.3	0.0000031
3203.3	0.0000080
3201.4	0.0000125
3199.5	0.0000112
3197.6	0.0000089
3195.6	0.0000096
3193.7	0.0000086
3191.8	0.0000048
3189.8	0.0000033
3187.9	0.0000061
3186.0	0.0000122
3184.1	0.0000196
3182.1	0.0000217
3180.2	0.0000143
3178.3	0.0000037
3176.3	0.0000022
3174.4	0.0000119
3172.5	0.0000254
3170.6	0.0000368
3168.6	0.0000456
3166.7	0.0000538
3164.8	0.0000643
3162.8	0.0000770
3160.9	0.0000891
3159.0	0.0001029
3157.1	0.0001216
3155.1	0.0001360
3153.2	0.0001447
3151.3	0.0001582
3149.3	0.0001761
3147.4	0.0001902
3145.5	0.0001957
3143.6	0.0001936
3141.6	0.0001901
3139.7	0.0001870
3137.8	0.0001851
3135.8	0.0001915
3133.9	0.0002051
3132.0	0.0002115
3130.1	0.0002054
3128.1	0.0001966
3126.2	0.0001911
3124.3	0.0001855
3122.3	0.0001794
3120.4	0.0001755
3118.5	0.0001679
3116.6	0.0001501
3114.6	0.0001289
3112.7	0.0001158
3110.8	0.0001090
3108.8	0.0000981
3106.9	0.0000806
3105.0	0.0000637
3103.1	0.0000534
3101.1	0.0000517
3099.2	0.0000531
3097.3	0.0000435
3095.3	0.0000263
3093.4	0.0000180
3091.5	0.0000192
3089.6	0.0000200
3087.6	0.0000175
3085.7	0.0000140
3083.8	0.0000120
3081.8	0.0000088
3079.9	0.0000012
3078.0	-0.0000066
3076.1	-0.0000070
3074.1	-0.0000035
3072.2	-0.0000047
3070.3	-0.0000085
3068.3	-0.0000114
3066.4	-0.0000134
3064.5	-0.0000172
3062.6	-0.0000201
3060.6	-0.0000153
3058.7	-0.0000063
3056.8	-0.0000018
3054.8	-0.0000022
3052.9	-0.0000049
3051.0	-0.0000102
3049.1	-0.0000133
3047.1	-0.0000105
3045.2	-0.0000076
3043.3	-0.0000104
3041.3	-0.0000185
3039.4	-0.0000244
3037.5	-0.0000187
3035.6	-0.0000061
3033.6	-0.0000026
3031.7	-0.0000102
3029.8	-0.0000169
3027.8	-0.0000208
3025.9	-0.0000272
3024.0	-0.0000327
3022.1	-0.0000339
3020.1	-0.0000384
3018.2	-0.0000501
3016.3	-0.0000574
3014.3	-0.0000504
3012.4	-0.0000374
3010.5	-0.0000318
3008.6	-0.0000309
3006.6	-0.0000232
3004.7	-0.0000117
3002.8	-0.0000091
3000.8	-0.0000145
2998.9	-0.0000164
2997.0	-0.0000149
2995.1	-0.0000157
2993.1	-0.0000180
2991.2	-0.0000231
2989.3	-0.0000260
2987.3	-0.0000209
2985.4	-0.0000154
2983.5	-0.0000166
2981.6	-0.0000218
2979.6	-0.0000247
2977.7	-0.0000234
2975.8	-0.0000203
2973.8	-0.0000126
2971.9	-0.0000046
2970.0	-0.0000057
2968.1	-0.0000079
2966.1	-0.0000039
2964.2	-0.0000037
2962.3	-0.0000096
2960.3	-0.0000104
2958.4	-0.0000033
2956.5	0.0000036
2954.6	0.0000033
2952.6	-0.0000024
2950.7	-0.0000050
2948.8	-0.0000005
2946.8	0.0000017
2944.9	-0.0000052
2943.0	-0.0000112
2941.1	-0.0000107
2939.1	-0.0000114
2937.2	-0.0000119
2935.3	-0.0000098
2933.3	-0.0000080
2931.4	-0.0000081
2929.5	-0.0000110
2927.6	-0.0000117
2925.6	-0.0000070
2923.7	-0.0000026
2921.8	0.0000007
2919.8	0.0000054
2917.9	0.0000088
2916.0	0.0000066
2914.1	0.0000013
2912.1	0.0000017
2910.2	0.0000075
2908.3	0.0000078
2906.3	0.0000016
2904.4	-0.0000036
2902.5	-0.0000031
2900.6	0.0000045
2898.6	0.0000149
2896.7	0.0000179
2894.8	0.0000160
2892.8	0.0000203
2890.9	0.0000280
2889.0	0.0000317
2887.1	0.0000349
2885.1	0.0000413
2883.2	0.0000444
2881.3	0.0000389
2879.3	0.0000307
2877.4	0.0000282
2875.5	0.0000339
2873.6	0.0000459
2871.6	0.0000593
2869.7	0.0000694
2867.8	0.0000792
2865.8	0.0000875
2863.9	0.0000901
2862.0	0.0000929
2860.1	0.0000978
2858.1	0.0000981
2856.2	0.0000975
2854.3	0.0001037
2852.3	0.0001123
2850.4	0.0001152
2848.5	0.0001112
2846.6	0.0001044
2844.6	0.0000988
2842.7	0.0000930
2840.8	0.0000821
2838.8	0.0000683
2836.9	0.0000577
2835.0	0.0000489
2833.1	0.0000408
2831.1	0.0000364
2829.2	0.0000359
2827.3	0.0000404
2825.3	0.0000485
2823.4	0.0000517
2821.5	0.0000501
2819.6	0.0000509
2817.6	0.0000547
2815.7	0.0000604
2813.8	0.0000649
2811.8	0.0000655
2809.9	0.0000647
2808.0	0.0000630
2806.1	0.0000567
2804.1	0.0000470
2802.2	0.0000406
2800.3	0.0000372
2798.3	0.0000320
2796.4	0.0000271
2794.5	0.0000228
2792.6	0.0000173
2790.6	0.0000153
2788.7	0.0000159
2786.8	0.0000110
2784.8	0.0000029
2782.9	0.0000012
2781.0	0.0000055
2779.1	0.0000087
2777.1	0.0000100
2775.2	0.0000117
2773.3	0.0000113
2771.3	0.0000091
2769.4	0.0000104
2767.5	0.0000146
2765.6	0.0000185
2763.6	0.0000260
2761.7	0.0000361
2759.8	0.0000372
2757.8	0.0000289
2755.9	0.0000207
2754.0	0.0000113
2752.1	0.0000019
2750.1	-0.0000005
2748.2	0.0000019
2746.3	0.0000005
2744.3	-0.0000031
2742.4	-0.0000004
2740.5	0.0000050
2738.6	0.0000053
2736.6	0.0000029
2734.7	0.0000008
2732.8	-0.0000016
2730.8	-0.0000018
2728.9	0.0000026
2727.0	0.0000072
2725.1	0.0000071
2723.1	0.0000050
2721.2	0.0000072
2719.3	0.0000081
2717.3	0.0000017
2715.4	-0.0000017
2713.5	0.0000030
2711.6	0.0000089
2709.6	0.0000106
2707.7	0.0000055
2705.8	-0.0000013
2703.8	-0.0000024
2701.9	-0.0000011
2700.0	-0.0000045
2698.1	-0.0000092
2696.1	-0.0000087
2694.2	-0.0000041
2692.3	0.0000020
2690.3	0.0000068
2688.4	0.0000067
2686.5	0.0000035
2684.6	0.0000003
2682.6	-0.0000032
2680.7	-0.0000057
2678.8	-0.0000045
2676.8	-0.0000012
2674.9	0.0000027
2673.0	0.0000081
2671.1	0.0000114
2669.1	0.0000129
2667.2	0.0000153
2665.3	0.0000170
2663.3	0.0000189
2661.4	0.0000220
2659.5	0.0000221
2657.6	0.0000170
2655.6	0.0000120
2653.7	0.0000096
2651.8	0.0000063
2649.8	0.0000041
2647.9	0.0000048
2646.0	0.0000051
2644.1	0.0000042
2642.1	0.0000030
2640.2	0.0000038
2638.3	0.0000075
2636.3	0.0000102
2634.4	0.0000068
2632.5	0.0000018
2630.6	0.0000044
2628.6	0.0000120
2626.7	0.0000148
2624.8	0.0000124
2622.8	0.0000116
2620.9	0.0000124
2619.0	0.0000106
2617.1	0.0000085
2615.1	0.0000099
2613.2	0.0000127
2611.3	0.0000126
2609.3	0.0000087
2607.4	0.0000023
2605.5	-0.0000011
2603.6	-0.0000010
2601.6	-0.0000040
2599.7	-0.0000067
2597.8	-0.0000016
2595.8	0.0000088
2593.9	0.0000177
2592.0	0.0000210
2590.1	0.0000211
2588.1	0.0000217
2586.2	0.0000201
2584.3	0.0000126
2582.3	0.0000013
2580.4	-0.0000036
2578.5	0.0000017
2576.6	0.0000066
2574.6	0.0000055
2572.7	0.0000020
2570.8	0.0000006
2568.8	0.0000016
2566.9	0.0000038
2565.0	0.0000066
2563.1	0.0000046
2561.1	-0.0000030
2559.2	-0.0000070
2557.3	-0.0000017
2555.3	0.0000075
2553.4	0.0000110
2551.5	0.0000086
2549.6	0.0000077
2547.6	0.0000120
2545.7	0.0000195
2543.8	0.0000244
2541.8	0.0000211
2539.9	0.0000136
2538.0	0.0000103
2536.1	0.0000083
2534.1	0.0000061
2532.2	0.0000097
2530.3	0.0000158
2528.3	0.0000174
2526.4	0.0000167
2524.5	0.0000185
2522.6	0.0000194
2520.6	0.0000167
2518.7	0.0000127
2516.8	0.0000099
2514.8	0.0000072
2512.9	0.0000046
2511.0	0.0000040
2509.1	0.0000066
2507.1	0.0000093
2505.2	0.0000114
2503.3	0.0000142
2501.3	0.0000149
2499.4	0.0000127
2497.5	0.0000117
2495.6	0.0000111
2493.6	0.0000095
2491.7	0.0000074
2489.8	0.0000053
2487.8	0.0000058
2485.9	0.0000088
2484.0	0.0000103
2482.1	0.0000083
2480.1	0.0000072
2478.2	0.0000108
2476.3	0.0000149
2474.3	0.0000154
2472.4	0.0000107
2470.5	0.0000066
2468.6	0.0000115
2466.6	0.0000177
2464.7	0.0000141
2462.8	0.0000083
2460.8	0.0000134
2458.9	0.0000217
2457.0	0.0000212
2455.1	0.0000184
2453.1	0.0000179
2451.2	0.0000146
2449.3	0.0000104
2447.3	0.0000094
2445.4	0.0000088
2443.5	0.0000078
2441.6	0.0000067
2439.6	0.0000024
2437.7	-0.0000019
2435.8	0.0000005
2433.8	0.0000107
2431.9	0.0000185
2430.0	0.0000165
2428.1	0.0000131
2426.1	0.0000165
2424.2	0.0000230
2422.3	0.0000241
2420.3	0.0000178
2418.4	0.0000116
2416.5	0.0000111
2414.6	0.0000125
2412.6	0.0000104
2410.7	0.0000078
2408.8	0.0000107
2406.8	0.0000147
2404.9	0.0000100
2403.0	0.0000012
2401.1	0.0000015
2399.1	0.0000081
2397.2	0.0000079
2395.3	0.0000030
2393.3	0.0000011
2391.4	0.0000001
2389.5	-0.0000021
2387.6	-0.0000018
2385.6	-0.0000015
2383.7	-0.0000059
2381.8	-0.0000079
2379.8	-0.0000026
2377.9	-0.0000000
2376.0	-0.0000040
2374.1	-0.0000077
2372.1	-0.0000119
2370.2	-0.0000157
2368.3	-0.0000139
2366.3	-0.0000102
2364.4	-0.0000125
2362.5	-0.0000171
2360.6	-0.0000153
2358.6	-0.0000092
2356.7	-0.0000080
2354.8	-0.0000137
2352.8	-0.0000229
2350.9	-0.0000302
2349.0	-0.0000314
2347.1	-0.0000288
2345.1	-0.0000267
2343.2	-0.0000262
2341.3	-0.0000279
2339.3	-0.0000292
2337.4	-0.0000245
2335.5	-0.0000117
2333.6	0.0000031
2331.6	0.0000105
2329.7	0.0000083
2327.8	0.0000009
2325.8	-0.0000033
2323.9	-0.0000023
2322.0	-0.0000026
2320.1	-0.0000040
2318.1	-0.0000038
2316.2	-0.0000022
2314.3	0.0000010
2312.3	0.0000015
2310.4	-0.0000036
2308.5	-0.0000086
2306.6	-0.0000083
2304.6	-0.0000038
2302.7	-0.0000016
2300.8	-0.0000043
2298.8	-0.0000060
2296.9	-0.0000057
2295.0	-0.0000064
2293.1	-0.0000079
2291.1	-0.0000093
2289.2	-0.0000092
2287.3	-0.0000053
2285.3	-0.0000014
2283.4	-0.0000044
2281.5	-0.0000119
2279.6	-0.0000146
2277.6	-0.0000122
2275.7	-0.0000081
2273.8	-0.0000067
2271.8	-0.0000093
2269.9	-0.0000089
2268.0	-0.0000064
2266.1	-0.0000107
2264.1	-0.0000173
2262.2	-0.0000197
2260.3	-0.0000209
2258.3	-0.0000210
2256.4	-0.0000191
2254.5	-0.0000192
2252.6	-0.0000208
2250.6	-0.0000163
2248.7	-0.0000079
2246.8	-0.0000053
2244.8	-0.0000088
2242.9	-0.0000112
2241.0	-0.0000116
2239.1	-0.0000120
2237.1	-0.0000125
2235.2	-0.0000152
2233.3	-0.0000180
2231.3	-0.0000178
2229.4	-0.0000185
2227.5	-0.0000231
2225.6	-0.0000237
2223.6	-0.0000170
2221.7	-0.0000137
2219.8	-0.0000219
2217.8	-0.0000321
2215.9	-0.0000323
2214.0	-0.0000266
2212.1	-0.0000269
2210.1	-0.0000318
2208.2	-0.0000309
2206.3	-0.0000234
2204.3	-0.0000177
2202.4	-0.0000179
2200.5	-0.0000216
2198.6	-0.0000220
2196.6	-0.0000168
2194.7	-0.0000126
2192.8	-0.0000124
2190.8	-0.0000144
2188.9	-0.0000175
2187.0	-0.0000184
2185.1	-0.0000179
2183.1	-0.0000202
2181.2	-0.0000244
2179.3	-0.0000267
2177.3	-0.0000241
2175.4	-0.0000166
2173.5	-0.0000117
2171.6	-0.0000156
2169.6	-0.0000234
2167.7	-0.0000234
2165.8	-0.0000156
2163.8	-0.0000091
2161.9	-0.0000087
2160.0	-0.0000142
2158.1	-0.0000215
2156.1	-0.0000241
2154.2	-0.0000194
2152.3	-0.0000134
2150.3	-0.0000143
2148.4	-0.0000195
2146.5	-0.0000216
2144.6	-0.0000228
2142.6	-0.0000274
2140.7	-0.0000314
2138.8	-0.0000314
2136.8	-0.0000319
2134.9	-0.0000332
2133.0	-0.0000287
2131.1	-0.0000224
2129.1	-0.0000224
2127.2	-0.0000242
2125.3	-0.0000249
2123.3	-0.0000274
2121.4	-0.0000265
2119.5	-0.0000211
2117.6	-0.0000193
2115.6	-0.0000204
2113.7	-0.0000205
2111.8	-0.0000206
2109.8	-0.0000225
2107.9	-0.0000270
2106.0	-0.0000327
2104.1	-0.0000353
2102.1	-0.0000366
2100.2	-0.0000425
2098.3	-0.0000552
2096.3	-0.0000766
2094.4	-0.0001102
2092.5	-0.0001638
2090.6	-0.0002523
2088.6	-0.0003629
2086.7	-0.0004291
2084.8	-0.0004029
2082.8	-0.0003197
2080.9	-0.0002461
2079.0	-0.0002042
2077.1	-0.0001795
2075.1	-0.0001634
2073.2	-0.0001538
2071.3	-0.0001429
2069.3	-0.0001290
2067.4	-0.0001188
2065.5	-0.0001120
2063.6	-0.0001058
2061.6	-0.0001001
2059.7	-0.0000928
2057.8	-0.0000837
2055.8	-0.0000742
2053.9	-0.0000634
2052.0	-0.0000560
2050.1	-0.0000526
2048.1	-0.0000452
2046.2	-0.0000342
2044.3	-0.0000266
2042.3	-0.0000200
2040.4	-0.0000104
2038.5	-0.0000027
2036.6	0.0000001
2034.6	0.0000024
2032.7	0.0000052
2030.8	0.0000059
2028.8	0.0000084
2026.9	0.0000138
2025.0	0.0000149
2023.1	0.0000109
2021.1	0.0000080
2019.2	0.0000102
2017.3	0.0000155
2015.3	0.0000194
2013.4	0.0000213
2011.5	0.0000232
2009.6	0.0000226
2007.6	0.0000187
2005.7	0.0000141
2003.8	0.0000109
2001.8	0.0000060
1999.9	-0.0000018
1998.0	-0.0000105
1996.1	-0.0000164
1994.1	-0.0000139
1992.2	-0.0000047
1990.3	-0.0000010
1988.3	-0.0000053
1986.4	-0.0000097
1984.5	-0.0000104
1982.6	-0.0000068
1980.6	-0.0000033
1978.7	-0.0000073
1976.8	-0.0000153
1974.8	-0.0000145
1972.9	-0.0000039
1971.0	0.0000046
1969.1	0.0000035
1967.1	-0.0000057
1965.2	-0.0000159
1963.3	-0.0000220
1961.4	-0.0000245
1959.4	-0.0000230
1957.5	-0.0000184
1955.6	-0.0000146
1953.6	-0.0000137
1951.7	-0.0000176
1949.8	-0.0000213
1947.9	-0.0000195
1945.9	-0.0000154
1944.0	-0.0000126
1942.1	-0.0000116
1940.1	-0.0000131
1938.2	-0.0000152
1936.3	-0.0000159
1934.4	-0.0000142
1932.4	-0.0000085
1930.5	-0.0000029
1928.6	-0.0000033
1926.6	-0.0000044
1924.7	-0.0000013
1922.8	0.0000018
1920.9	0.0000047
1918.9	0.0000103
1917.0	0.0000114
1915.1	0.0000038
1913.1	-0.0000011
1911.2	0.0000027
1909.3	0.0000054
1907.4	0.0000031
1905.4	0.0000021
1903.5	0.0000049
1901.6	0.0000092
1899.6	0.0000143
1897.7	0.0000194
1895.8	0.0000201
1893.9	0.0000160
1891.9	0.0000131
1890.0	0.0000102
1888.1	0.0000050
1886.1	0.0000016
1884.2	0.0000041
1882.3	0.0000092
1880.4	0.0000085
1878.4	0.0000021
1876.5	-0.0000013
1874.6	-0.0000016
1872.6	0.0000005
1870.7	0.0000080
1868.8	0.0000123
1866.9	0.0000063
1864.9	-0.0000004
1863.0	-0.0000006
1861.1	0.0000018
1859.1	0.0000037
1857.2	0.0000057
1855.3	0.0000104
1853.4	0.0000176
1851.4	0.0000185
1849.5	0.0000082
1847.6	0.0000029
1845.6	0.0000137
1843.7	0.0000213
1841.8	0.0000129
1839.9	0.0000063
1837.9	0.0000096
1836.0	0.0000119
1834.1	0.0000119
1832.1	0.0000176
1830.2	0.0000254
1828.3	0.0000264
1826.4	0.0000243
1824.4	0.0000235
1822.5	0.0000201
1820.6	0.0000162
1818.6	0.0000165
1816.7	0.0000214
1814.8	0.0000260
1812.9	0.0000261
1810.9	0.0000240
1809.0	0.0000254
1807.1	0.0000332
1805.1	0.0000418
1803.2	0.0000448
1801.3	0.0000439
1799.4	0.0000424
1797.4	0.0000454
1795.5	0.0000543
1793.6	0.0000587
1791.6	0.0000514
1789.7	0.0000441
1787.8	0.0000494
1785.9	0.0000570
1783.9	0.0000537
1782.0	0.0000465
1780.1	0.0000426
1778.1	0.0000383
1776.2	0.0000379
1774.3	0.0000517
1772.4	0.0000636
1770.4	0.0000506
1768.5	0.0000279
1766.6	0.0000208
1764.6	0.0000275
1762.7	0.0000338
1760.8	0.0000310
1758.9	0.0000229
1756.9	0.0000165
1755.0	0.0000160
1753.1	0.0000224
1751.1	0.0000272
1749.2	0.0000245
1747.3	0.0000214
1745.4	0.0000192
1743.4	0.0000141
1741.5	0.0000106
1739.6	0.0000127
1737.6	0.0000242
1735.7	0.0000469
1733.8	0.0000597
1731.9	0.0000496
1729.9	0.0000383
1728.0	0.0000385
1726.1	0.0000423
1724.1	0.0000450
1722.2	0.0000532
1720.3	0.0000785
1718.4	0.0001135
1716.4	0.0001270
1714.5	0.0001141
1712.6	0.0001066
1710.6	0.0001294
1708.7	0.0001922
1706.8	0.0002975
1704.9	0.0004393
1702.9	0.0006142
1701.0	0.0008176
1699.1	0.0010393
1697.1	0.0012811
1695.2	0.0015227
1693.3	0.0017128
1691.4	0.0018374
1689.4	0.0019213
1687.5	0.0020063
1685.6	0.0021219
1683.6	0.0022748
1681.7	0.0025052
1679.8	0.0028316
1677.9	0.0031507
1675.9	0.0033015
1674.0	0.0032092
1672.1	0.0029406
1670.1	0.0026074
1668.2	0.0022691
1666.3	0.0019492
1664.4	0.0016624
1662.4	0.0014049
1660.5	0.0011727
1658.6	0.0009781
1656.6	0.0008440
1654.7	0.0007781
1652.8	0.0007243
1650.9	0.0006415
1648.9	0.0005841
1647.0	0.0005735
1645.1	0.0005619
1643.1	0.0005454
1641.2	0.0005505
1639.3	0.0005764
1637.4	0.0006191
1635.4	0.0006683
1633.5	0.0007030
1631.6	0.0007192
1629.6	0.0007151
1627.7	0.0006800
1625.8	0.0006188
1623.9	0.0005456
1621.9	0.0004695
1620.0	0.0004116
1618.1	0.0003847
1616.1	0.0003571
1614.2	0.0003118
1612.3	0.0002791
1610.4	0.0002710
1608.4	0.0002740
1606.5	0.0002835
1604.6	0.0002978
1602.6	0.0003084
1600.7	0.0003056
1598.8	0.0002890
1596.9	0.0002630
1594.9	0.0002281
1593.0	0.0001890
1591.1	0.0001548
1589.1	0.0001307
1587.2	0.0001162
1585.3	0.0001069
1583.4	0.0001008
1581.4	0.0001007
1579.5	0.0001238
1577.6	0.0001911
1575.6	0.0002841
1573.7	0.0003663
1571.8	0.0004168
1569.9	0.0004062
1567.9	0.0003320
1566.0	0.0002419
1564.1	0.0001684
1562.1	0.0001244
1560.2	0.0001146
1558.3	0.0001074
1556.4	0.0000829
1554.4	0.0000624
1552.5	0.0000554
1550.6	0.0000540
1548.6	0.0000586
1546.7	0.0000729
1544.8	0.0000985
1542.9	0.0001323
1540.9	0.0001503
1539.0	0.0001273
1537.1	0.0000899
1535.1	0.0000743
1533.2	0.0000652
1531.3	0.0000480
1529.4	0.0000354
1527.4	0.0000302
1525.5	0.0000284
1523.6	0.0000323
1521.6	0.0000338
1519.7	0.0000229
1517.8	0.0000089
1515.9	0.0000001
1513.9	-0.0000056
1512.0	-0.0000038
1510.1	0.0000211
1508.1	0.0000682
1506.2	0.0000908
1504.3	0.0000626
1502.4	0.0000300
1500.4	0.0000266
1498.5	0.0000352
1496.6	0.0000413
1494.6	0.0000473
1492.7	0.0000572
1490.8	0.0000701
1488.9	0.0000801
1486.9	0.0000919
1485.0	0.0001314
1483.1	0.0002308
1481.1	0.0004189
1479.2	0.0006954
1477.3	0.0009778
1475.4	0.0011297
1473.4	0.0010943
1471.5	0.0009477
1469.6	0.0007988
1467.6	0.0006896
1465.7	0.0005976
1463.8	0.0004944
1461.9	0.0003939
1459.9	0.0003314
1458.0	0.0002940
1456.1	0.0002346
1454.1	0.0001553
1452.2	0.0000933
1450.3	0.0000597
1448.4	0.0000383
1446.4	0.0000131
1444.5	-0.0000054
1442.6	-0.0000068
1440.6	-0.0000078
1438.7	-0.0000055
1436.8	0.0000584
1434.9	0.0001702
1432.9	0.0001944
1431.0	0.0001011
1429.1	0.0000139
1427.1	-0.0000024
1425.2	0.0000175
1423.3	0.0000421
1421.4	0.0000614
1419.4	0.0000665
1417.5	0.0000659
1415.6	0.0000878
1413.6	0.0001414
1411.7	0.0002120
1409.8	0.0002904
1407.9	0.0003738
1405.9	0.0004571
1404.0	0.0005440
1402.1	0.0006561
1400.1	0.0008011
1398.2	0.0009365
1396.3	0.0009884
1394.4	0.0009058
1392.4	0.0007045
1390.5	0.0004655
1388.6	0.0002726
1386.6	0.0001516
1384.7	0.0000790
1382.8	0.0000341
1380.9	0.0000196
1378.9	0.0000358
1377.0	0.0000769
1375.1	0.0001445
1373.1	0.0002403
1371.2	0.0003537
1369.3	0.0004581
1367.4	0.0005160
1365.4	0.0005041
1363.5	0.0004371
1361.6	0.0003542
1359.6	0.0002822
1357.7	0.0002264
1355.8	0.0001852
1353.9	0.0001551
1351.9	0.0001319
1350.0	0.0001128
1348.1	0.0000975
1346.1	0.0000827
1344.2	0.0000694
1342.3	0.0000648
1340.4	0.0000624
1338.4	0.0000478
1336.5	0.0000277
1334.6	0.0000157
1332.6	0.0000118
1330.7	0.0000117
1328.8	0.0000120
1326.9	0.0000123
1324.9	0.0000121
1323.0	0.0000089
1321.1	0.0000057
1319.1	0.0000066
1317.2	0.0000087
1315.3	0.0000103
1313.4	0.0000154
1311.4	0.0000251
1309.5	0.0000325
1307.6	0.0000348
1305.6	0.0000345
1303.7	0.0000388
1301.8	0.0000507
1299.9	0.0000601
1297.9	0.0000678
1296.0	0.0000880
1294.1	0.0001189
1292.1	0.0001548
1290.2	0.0002004
1288.3	0.0002572
1286.4	0.0003191
1284.4	0.0003695
1282.5	0.0003903
1280.6	0.0003731
1278.6	0.0003151
1276.7	0.0002323
1274.8	0.0001591
1272.9	0.0001155
1270.9	0.0000930
1269.0	0.0000768
1267.1	0.0000619
1265.1	0.0000532
1263.2	0.0000537
1261.3	0.0000595
1259.4	0.0000695
1257.4	0.0000847
1255.5	0.0000994
1253.6	0.0001059
1251.6	0.0001068
1249.7	0.0001063
1247.8	0.0001004
1245.9	0.0000889
1243.9	0.0000789
1242.0	0.0000748
1240.1	0.0000684
1238.1	0.0000538
1236.2	0.0000442
1234.3	0.0000450
1232.4	0.0000465
1230.4	0.0000465
1228.5	0.0000433
1226.6	0.0000375
1224.6	0.0000424
1222.7	0.0000568
1220.8	0.0000599
1218.9	0.0000476
1216.9	0.0000387
1215.0	0.0000419
1213.1	0.0000481
1211.1	0.0000529
1209.2	0.0000542
1207.3	0.0000470
1205.4	0.0000382
1203.4	0.0000409
1201.5	0.0000561
1199.6	0.0000700
1197.6	0.0000712
1195.7	0.0000630
1193.8	0.0000514
1191.9	0.0000359
1189.9	0.0000213
1188.0	0.0000185
1186.1	0.0000250
1184.1	0.0000240
1182.2	0.0000131
1180.3	0.0000111
1178.4	0.0000190
1176.4	0.0000167
1174.5	0.0000023
1172.6	-0.0000080
1170.6	-0.0000027
1168.7	0.0000206
1166.8	0.0000594
1164.9	0.0001087
1162.9	0.0001644
1161.0	0.0002164
1159.1	0.0002517
1157.1	0.0002676
1155.2	0.0002647
1153.3	0.0002426
1151.4	0.0002088
1149.4	0.0001714
1147.5	0.0001260
1145.6	0.0000776
1143.6	0.0000454
1141.7	0.0000319
1139.8	0.0000250
1137.9	0.0000140
1135.9	-0.0000017
1134.0	-0.0000099
1132.1	-0.0000065
1130.1	-0.0000003
1128.2	0.0000016
1126.3	-0.0000019
1124.4	-0.0000065
1122.4	-0.0000099
1120.5	-0.0000125
1118.6	-0.0000091
1116.6	0.0000007
1114.7	0.0000044
1112.8	-0.0000023
1110.9	-0.0000031
1108.9	0.0000108
1107.0	0.0000201
1105.1	0.0000130
1103.1	0.0000075
1101.2	0.0000119
1099.3	0.0000143
1097.4	0.0000121
1095.4	0.0000114
1093.5	0.0000211
1091.6	0.0000431
1089.6	0.0000686
1087.7	0.0000962
1085.8	0.0001290
1083.9	0.0001600
1081.9	0.0001738
1080.0	0.0001657
1078.1	0.0001525
1076.1	0.0001364
1074.2	0.0001106
1072.3	0.0000854
1070.4	0.0000644
1068.4	0.0000426
1066.5	0.0000256
1064.6	0.0000132
1062.6	0.0000036
1060.7	0.0000079
1058.8	0.0000230
1056.9	0.0000310
1054.9	0.0000326
1053.0	0.0000319
1051.1	0.0000303
1049.1	0.0000346
1047.2	0.0000451
1045.3	0.0000555
1043.4	0.0000636
1041.4	0.0000818
1039.5	0.0001239
1037.6	0.0001860
1035.6	0.0002666
1033.7	0.0003641
1031.8	0.0004534
1029.9	0.0005162
1027.9	0.0005677
1026.0	0.0006178
1024.1	0.0006533
1022.1	0.0006590
1020.2	0.0006298
1018.3	0.0005659
1016.4	0.0004752
1014.4	0.0003828
1012.5	0.0003089
1010.6	0.0002377
1008.6	0.0001567
1006.7	0.0000903
1004.8	0.0000544
1002.9	0.0000342
1000.9	0.0000199
999.0	0.0000159
997.1	0.0000186
995.1	0.0000186
993.2	0.0000176
991.3	0.0000206
989.4	0.0000244
987.4	0.0000218
985.5	0.0000138
983.6	0.0000166
981.6	0.0000364
979.7	0.0000518
977.8	0.0000469
975.9	0.0000369
973.9	0.0000342
972.0	0.0000279
970.1	0.0000115
968.1	0.0000015
966.2	0.0000051
964.3	0.0000024
962.4	-0.0000079
960.4	-0.0000068
958.5	0.0000022
956.6	0.0000081
954.6	0.0000162
952.7	0.0000274
950.8	0.0000394
948.9	0.0000522
946.9	0.0000568
945.0	0.0000532
943.1	0.0000547
941.1	0.0000673
939.2	0.0001027
937.3	0.0001692
935.4	0.0002510
933.4	0.0003305
931.5	0.0003801
929.6	0.0003559
927.6	0.0002557
925.7	0.0001377
923.8	0.0000513
921.9	0.0000060
919.9	-0.0000039
918.0	0.0000036
916.1	0.0000083
914.1	0.0000116
912.2	0.0000165
910.3	0.0000126
908.4	0.0000095
906.4	0.0000258
904.5	0.0000475
902.6	0.0000541
900.6	0.0000500
898.7	0.0000427
896.8	0.0000341
894.9	0.0000334
892.9	0.0000449
891.0	0.0000647
889.1	0.0001197
887.1	0.0002591
885.2	0.0004389
883.3	0.0005047
881.4	0.0003895
879.4	0.0001990
877.5	0.0000635
875.6	0.0000103
873.6	0.0000001
871.7	-0.0000006
869.8	-0.0000016
867.9	0.0000079
865.9	0.0000240
864.0	0.0000317
862.1	0.0000504
860.1	0.0000934
858.2	0.0001281
856.3	0.0001314
854.4	0.0001302
852.4	0.0001476
850.5	0.0001648
848.6	0.0001615
846.6	0.0001448
844.7	0.0001389
842.8	0.0001551
840.9	0.0001750
838.9	0.0001663
837.0	0.0001160
835.1	0.0000572
833.1	0.0000233
831.2	0.0000009
829.3	-0.0000179
827.4	0.0000095
825.4	0.0000812
823.5	0.0001137
821.6	0.0000875
819.6	0.0000767
817.7	0.0001273
815.8	0.0002071
813.9	0.0002614
811.9	0.0003115
810.0	0.0004086
808.1	0.0005476
806.1	0.0007114
804.2	0.0008708
802.3	0.0009931
800.4	0.0011101
798.4	0.0012775
796.5	0.0014673
794.6	0.0016215
792.6	0.0017314
790.7	0.0017731
788.8	0.0017543
786.9	0.0017384
784.9	0.0017133
783.0	0.0016310
781.1	0.0015140
779.1	0.0013830
777.2	0.0012233
775.3	0.0010710
773.4	0.0009656
771.4	0.0008705
769.5	0.0007748
767.6	0.0007253
765.6	0.0007403
763.7	0.0007619
761.8	0.0007089
759.9	0.0005946
757.9	0.0004932
756.0	0.0004131
754.1	0.0003540
752.1	0.0003416
750.2	0.0003299
748.3	0.0002627
746.4	0.0002086
744.4	0.0002340
742.5	0.0002489
740.6	0.0001668
738.6	0.0000466
736.7	-0.0000129
734.8	0.0000352
732.9	0.0001196
730.9	0.0001275
729.0	0.0000898
727.1	0.0001340
725.1	0.0002760
723.2	0.0003510
721.3	0.0002893
719.4	0.0002043
717.4	0.0001260
715.5	0.0001011
713.6	0.0001952
711.6	0.0003095
709.7	0.0004161
707.8	0.0004967
705.9	0.0004248
703.9	0.0002814
702.0	0.0002016
700.1	0.0001581
698.1	0.0001232
696.2	0.0000779
694.3	0.0000180
692.4	-0.0000022
690.4	0.0000344
688.5	0.0000516
686.6	0.0000653
684.6	0.0001434
682.7	0.0002414
680.8	0.0003067
678.9	0.0003132
676.9	0.0002470
675.0	0.0001699
673.1	0.0001353
671.1	0.0001111
669.2	0.0000698
667.3	0.0000594
665.4	0.0001417
663.4	0.0002779
661.5	0.0003312
659.6	0.0002375
657.6	0.0000777
655.7	0.0000256
653.8	0.0001132
651.9	0.0001457
649.9	0.0000087
648.0	-0.0001242
646.1	-0.0000734
644.1	0.0000406
642.2	0.0001562
640.3	0.0002885
638.4	0.0002322
636.4	0.0000165
634.5	-0.0000203
632.6	0.0001741
630.6	0.0003792
628.7	0.0004534
626.8	0.0003222
624.9	0.0001121
622.9	-0.0000183
621.0	-0.0001461
619.1	-0.0002201
617.1	-0.0001444
615.2	-0.0000170
613.3	-0.0000251
611.4	-0.0002335
609.4	-0.0003818
607.5	-0.0002027
605.6	0.0000632
603.6	-0.0000079
601.7	-0.0002482
599.8	-0.0002902
597.9	-0.0001488
595.9	-0.0000927
594.0	-0.0002207
592.1	-0.0002751
590.1	-0.0001428
588.2	0.0000359
586.3	0.0000244
584.4	-0.0001176
582.4	-0.0000542
580.5	0.0000650
578.6	-0.0000923
576.6	-0.0004239
574.7	-0.0005228
572.8	-0.0003557
570.9	-0.0002198
568.9	-0.0001255
567.0	0.0000141
565.1	0.0000780
563.1	0.0000170
561.2	0.0000239
559.3	0.0000216
557.4	-0.0000077
555.4	0.0001598
553.5	0.0003436
551.6	0.0002615
549.6	-0.0000406
547.7	-0.0002157
545.8	-0.0001006
543.9	0.0002222
541.9	0.0005249
540.0	0.0007842
538.1	0.0012398
536.1	0.0016466
534.2	0.0017708
532.3	0.0012524
530.4	-0.0000264
528.4	-0.0010871
526.5	-0.0021453
524.6	-0.0045296
522.6	-0.0053714
520.7	-0.0018430
518.8	0.0015571
516.9	0.0011770
514.9	-0.0056362
513.0	-0.0153819
511.1	-0.0109421
509.1	0.0053809
507.2	0.0117100
505.3	0.0071204
503.4	0.0030145
501.4	0.0007024
499.5	-0.0007572
497.6	-0.0012054
495.6	-0.0007424
493.7	-0.0001047
491.8	0.0000097
489.9	-0.0003146
487.9	-0.0006708
486.0	-0.0006644
484.1	-0.0003261
482.1	0.0001397
480.2	0.0003991
478.3	0.0001288
476.4	-0.0006988
474.4	-0.0014076
472.5	-0.0013427
470.6	-0.0006898
468.6	-0.0000091
466.7	0.0002342
464.8	0.0002283
462.9	0.0002593
460.9	0.0002257
459.0	0.0000253
457.1	-0.0001197
455.1	0.0000434
453.2	0.0001675
451.3	0.0001830
449.4	0.0003596
447.4	0.0004117
445.5	0.0002285
443.6	0.0003579
441.6	0.0006917
439.7	0.0005227
437.8	0.0000939
435.9	-0.0000499
433.9	0.0001076
432.0	0.0003607
430.1	0.0004197
428.1	0.0001974
426.2	-0.0000889
424.3	-0.0001524
422.4	-0.0000312
420.4	0.0001129
418.5	0.0001090
416.6	-0.0002283
414.6	-0.0007270
412.7	-0.0009332
410.8	-0.0005838
408.9	0.0000236
406.9	0.0005491
405.0	0.0008094
403.1	0.0006633
401.1	0.0003209
399.2	0.0000491
397.3	-0.0000049
395.4	-0.0001776
393.4	-0.0008926
391.5	-0.0015307
389.6	-0.0014582
387.6	-0.0012148
385.7	-0.0012872
383.8	-0.0012545
381.9	-0.0008559
379.9	-0.0004602
378.0	-0.0003342
376.1	-0.0003598
374.1	-0.0003719
372.2	-0.0001123
370.3	0.0003401
368.4	0.0003682
