3997.9	0.0000248
3996.0	0.0000141
3994.1	0.0000059
3992.1	0.0000115
3990.2	0.0000238
3988.3	0.0000308
3986.3	0.0000316
3984.4	0.0000342
3982.5	0.0000407
3980.6	0.0000433
3978.6	0.0000367
3976.7	0.0000302
3974.8	0.0000344
3972.8	0.0000404
3970.9	0.0000399
3969.0	0.0000434
3967.1	0.0000530
3965.1	0.0000523
3963.2	0.0000418
3961.3	0.0000434
3959.3	0.0000575
3957.4	0.0000641
3955.5	0.0000640
3953.6	0.0000613
3951.6	0.0000515
3949.7	0.0000439
3947.8	0.0000473
3945.8	0.0000503
3943.9	0.0000413
3942.0	0.0000334
3940.1	0.0000413
3938.1	0.0000553
3936.2	0.0000609
3934.3	0.0000521
3932.3	0.0000381
3930.4	0.0000377
3928.5	0.0000476
3926.6	0.0000486
3924.6	0.0000473
3922.7	0.0000560
3920.8	0.0000571
3918.8	0.0000466
3916.9	0.0000514
3915.0	0.0000757
3913.1	0.0000973
3911.1	0.0001028
3909.2	0.0000865
3907.3	0.0000434
3905.3	-0.0000117
3903.4	-0.0000449
3901.5	-0.0000432
3899.6	-0.0000165
3897.6	0.0000241
3895.7	0.0000492
3893.8	0.0000352
3891.8	0.0000217
3889.9	0.0000363
3888.0	0.0000261
3886.1	-0.0000090
3884.1	-0.0000024
3882.2	0.0000263
3880.3	0.0000459
3878.3	0.0000702
3876.4	0.0000751
3874.5	0.0000478
3872.6	0.0000012
3870.6	-0.0000360
3868.7	-0.0000216
3866.8	0.0000047
3864.8	0.0000000
3862.9	0.0000049
3861.0	0.0000367
3859.1	0.0000519
3857.1	-0.0000164
3855.2	-0.0001577
3853.3	-0.0002107
3851.3	-0.0001001
3849.4	0.0000301
3847.5	0.0000754
3845.6	0.0000676
3843.6	0.0000455
3841.7	0.0000023
3839.8	-0.0000596
3837.8	-0.0000845
3835.9	-0.0000447
3834.0	0.0000083
3832.1	0.0000374
3830.1	0.0000511
3828.2	0.0000523
3826.3	0.0000454
3824.3	0.0000226
3822.4	-0.0000192
3820.5	-0.0000318
3818.6	-0.0000290
3816.6	-0.0000451
3814.7	-0.0000173
3812.8	0.0000523
3810.8	0.0000715
3808.9	0.0000287
3807.0	-0.0000028
3805.1	-0.0000095
3803.1	-0.0000401
3801.2	-0.0000524
3799.3	-0.0000092
3797.3	0.0000266
3795.4	0.0000422
3793.5	0.0000651
3791.6	0.0000854
3789.6	0.0000933
3787.7	0.0000896
3785.8	0.0000794
3783.8	0.0000663
3781.9	0.0000508
3780.0	0.0000456
3778.1	0.0000584
3776.1	0.0000727
3774.2	0.0000711
3772.3	0.0000512
3770.3	0.0000351
3768.4	0.0000388
3766.5	0.0000452
3764.6	0.0000471
3762.6	0.0000408
3760.7	0.0000171
3758.8	0.0000029
3756.8	0.0000008
3754.9	-0.0000445
3753.0	-0.0001389
3751.1	-0.0001959
3749.1	-0.0001735
3747.2	-0.0001705
3745.3	-0.0002130
3743.3	-0.0001716
3741.4	-0.0000644
3739.5	-0.0000447
3737.6	-0.0001091
3735.6	-0.0001415
3733.7	-0.0001038
3731.8	-0.0000449
3729.8	-0.0000124
3727.9	-0.0000143
3726.0	-0.0000246
3724.1	-0.0000211
3722.1	-0.0000107
3720.2	0.0000012
3718.3	0.0000108
3716.3	0.0000018
3714.4	-0.0000370
3712.5	-0.0000745
3710.6	-0.0000634
3708.6	-0.0000143
3706.7	0.0000279
3704.8	0.0000334
3702.8	0.0000111
3700.9	-0.0000004
3699.0	0.0000080
3697.1	0.0000172
3695.1	0.0000068
3693.2	-0.0000365
3691.3	-0.0000974
3689.3	-0.0001228
3687.4	-0.0000772
3685.5	-0.0000064
3683.6	0.0000250
3681.6	0.0000157
3679.7	-0.0000278
3677.8	-0.0001134
3675.8	-0.0001731
3673.9	-0.0001548
3672.0	-0.0001318
3670.1	-0.0001216
3668.1	-0.0000720
3666.2	-0.0000106
3664.3	0.0000164
3662.3	0.0000130
3660.4	-0.0000071
3658.5	-0.0000373
3656.6	-0.0000531
3654.6	-0.0000509
3652.7	-0.0000857
3650.8	-0.0001582
3648.8	-0.0001800
3646.9	-0.0001199
3645.0	-0.0000458
3643.1	-0.0000106
3641.1	-0.0000039
3639.2	-0.0000015
3637.3	0.0000023
3635.3	-0.0000019
3633.4	-0.0000339
3631.5	-0.0001079
3629.6	-0.0001666
3627.6	-0.0001283
3625.7	-0.0000390
3623.8	-0.0000028
3621.8	-0.0000330
3619.9	-0.0000732
3618.0	-0.0000782
3616.1	-0.0000616
3614.1	-0.0000599
3612.2	-0.0000766
3610.3	-0.0000935
3608.3	-0.0000871
3606.4	-0.0000508
3604.5	-0.0000118
3602.6	-0.0000014
3600.6	-0.0000145
3598.7	-0.0000262
3596.8	-0.0000292
3594.8	-0.0000273
3592.9	-0.0000287
3591.0	-0.0000582
3589.1	-0.0001018
3587.1	-0.0000988
3585.2	-0.0000511
3583.3	-0.0000179
3581.3	-0.0000100
3579.4	-0.0000056
3577.5	-0.0000033
3575.6	-0.0000056
3573.6	-0.0000098
3571.7	-0.0000213
3569.8	-0.0000501
3567.8	-0.0000790
3565.9	-0.0000720
3564.0	-0.0000384
3562.1	-0.0000148
3560.1	-0.0000055
3558.2	0.0000019
3556.3	0.0000049
3554.3	0.0000012
3552.4	-0.0000011
3550.5	-0.0000041
3548.6	-0.0000184
3546.6	-0.0000316
3544.7	-0.0000212
3542.8	0.0000030
3540.8	0.0000121
3538.9	0.0000005
3537.0	-0.0000102
3535.1	-0.0000075
3533.1	-0.0000066
3531.2	-0.0000172
3529.3	-0.0000274
3527.3	-0.0000303
3525.4	-0.0000310
3523.5	-0.0000251
3521.6	-0.0000085
3519.6	0.0000042
3517.7	0.0000006
3515.8	-0.0000146
3513.8	-0.0000317
3511.9	-0.0000413
3510.0	-0.0000338
3508.1	-0.0000118
3506.1	-0.0000012
3504.2	-0.0000135
3502.3	-0.0000214
3500.3	-0.0000122
3498.4	-0.0000074
3496.5	-0.0000151
3494.6	-0.0000228
3492.6	-0.0000273
3490.7	-0.0000316
3488.8	-0.0000302
3486.8	-0.0000181
3484.9	-0.0000070
3483.0	-0.0000119
3481.1	-0.0000240
3479.1	-0.0000279
3477.2	-0.0000268
3475.3	-0.0000261
3473.3	-0.0000234
3471.4	-0.0000244
3469.5	-0.0000316
3467.6	-0.0000320
3465.6	-0.0000283
3463.7	-0.0000323
3461.8	-0.0000354
3459.8	-0.0000260
3457.9	-0.0000121
3456.0	-0.0000087
3454.1	-0.0000147
3452.1	-0.0000197
3450.2	-0.0000216
3448.3	-0.0000254
3446.3	-0.0000338
3444.4	-0.0000388
3442.5	-0.0000374
3440.6	-0.0000353
3438.6	-0.0000343
3436.7	-0.0000332
3434.8	-0.0000282
3432.8	-0.0000224
3430.9	-0.0000241
3429.0	-0.0000292
3427.1	-0.0000261
3425.1	-0.0000183
3423.2	-0.0000210
3421.3	-0.0000332
3419.3	-0.0000400
3417.4	-0.0000430
3415.5	-0.0000491
3413.6	-0.0000459
3411.6	-0.0000293
3409.7	-0.0000191
3407.8	-0.0000222
3405.8	-0.0000275
3403.9	-0.0000317
3402.0	-0.0000382
3400.1	-0.0000392
3398.1	-0.0000293
3396.2	-0.0000203
3394.3	-0.0000197
3392.3	-0.0000195
3390.4	-0.0000156
3388.5	-0.0000150
3386.6	-0.0000191
3384.6	-0.0000224
3382.7	-0.0000257
3380.8	-0.0000287
3378.8	-0.0000287
3376.9	-0.0000277
3375.0	-0.0000270
3373.1	-0.0000251
3371.1	-0.0000233
3369.2	-0.0000234
3367.3	-0.0000238
3365.3	-0.0000220
3363.4	-0.0000178
3361.5	-0.0000137
3359.6	-0.0000097
3357.6	-0.0000033
3355.7	0.0000021
3353.8	-0.0000010
3351.8	-0.0000127
3349.9	-0.0000204
3348.0	-0.0000187
3346.1	-0.0000151
3344.1	-0.0000132
3342.2	-0.0000133
3340.3	-0.0000154
3338.3	-0.0000154
3336.4	-0.0000119
3334.5	-0.0000094
3332.6	-0.0000111
3330.6	-0.0000100
3328.7	-0.0000011
3326.8	0.0000071
3324.8	0.0000061
3322.9	-0.0000011
3321.0	-0.0000058
3319.1	-0.0000045
3317.1	-0.0000039
3315.2	-0.0000079
3313.3	-0.0000165
3311.3	-0.0000260
3309.4	-0.0000262
3307.5	-0.0000211
3305.6	-0.0000217
3303.6	-0.0000241
3301.7	-0.0000275
3299.8	-0.0000334
3297.8	-0.0000323
3295.9	-0.0000258
3294.0	-0.0000238
3292.1	-0.0000263
3290.1	-0.0000269
3288.2	-0.0000248
3286.3	-0.0000223
3284.3	-0.0000169
3282.4	-0.0000108
3280.5	-0.0000063
3278.6	-0.0000007
3276.6	0.0000030
3274.7	-0.0000001
3272.8	-0.0000024
3270.8	0.0000040
3268.9	0.0000099
3267.0	0.0000099
3265.1	0.0000054
3263.1	-0.0000069
3261.2	-0.0000158
3259.3	-0.0000121
3257.3	-0.0000059
3255.4	-0.0000016
3253.5	0.0000021
3251.6	0.0000006
3249.6	-0.0000034
3247.7	-0.0000045
3245.8	-0.0000046
3243.8	-0.0000065
3241.9	-0.0000062
3240.0	-0.0000018
3238.1	-0.0000008
3236.1	-0.0000056
3234.2	-0.0000054
3232.3	0.0000050
3230.3	0.0000185
3228.4	0.0000274
3226.5	0.0000272
3224.6	0.0000217
3222.6	0.0000186
3220.7	0.0000195
3218.8	0.0000215
3216.8	0.0000205
3214.9	0.0000144
3213.0	0.0000098
3211.1	0.0000081
3209.1	0.0000053
3207.2	0.0000081
3205.3	0.0000165
3203.3	0.0000186
3201.4	0.0000155
3199.5	0.0000134
3197.6	0.0000137
3195.6	0.0000194
3193.7	0.0000263
3191.8	0.0000286
3189.8	0.0000281
3187.9	0.0000248
3186.0	0.0000239
3184.1	0.0000280
3182.1	0.0000285
3180.2	0.0000260
3178.3	0.0000311
3176.3	0.0000407
3174.4	0.0000449
3172.5	0.0000481
3170.6	0.0000585
3168.6	0.0000692
3166.7	0.0000713
3164.8	0.0000713
3162.8	0.0000808
3160.9	0.0000960
3159.0	0.0001064
3157.1	0.0001166
3155.1	0.0001351
3153.2	0.0001578
3151.3	0.0001767
3149.3	0.0001873
3147.4	0.0001909
3145.5	0.0001940
3143.6	0.0002003
3141.6	0.0002071
3139.7	0.0002161
3137.8	0.0002333
3135.8	0.0002505
3133.9	0.0002508
3132.0	0.0002376
3130.1	0.0002280
3128.1	0.0002255
3126.2	0.0002233
3124.3	0.0002192
3122.3	0.0002148
3120.4	0.0002124
3118.5	0.0002115
3116.6	0.0002061
3114.6	0.0001921
3112.7	0.0001736
3110.8	0.0001549
3108.8	0.0001395
3106.9	0.0001321
3105.0	0.0001295
3103.1	0.0001214
3101.1	0.0001022
3099.2	0.0000807
3097.3	0.0000676
3095.3	0.0000622
3093.4	0.0000599
3091.5	0.0000610
3089.6	0.0000640
3087.6	0.0000632
3085.7	0.0000587
3083.8	0.0000528
3081.8	0.0000433
3079.9	0.0000372
3078.0	0.0000408
3076.1	0.0000434
3074.1	0.0000372
3072.2	0.0000314
3070.3	0.0000345
3068.3	0.0000403
3066.4	0.0000384
3064.5	0.0000356
3062.6	0.0000403
3060.6	0.0000455
3058.7	0.0000457
3056.8	0.0000409
3054.8	0.0000344
3052.9	0.0000346
3051.0	0.0000415
3049.1	0.0000478
3047.1	0.0000473
3045.2	0.0000403
3043.3	0.0000378
3041.3	0.0000440
3039.4	0.0000477
3037.5	0.0000406
3035.6	0.0000315
3033.6	0.0000326
3031.7	0.0000390
3029.8	0.0000411
3027.8	0.0000380
3025.9	0.0000333
3024.0	0.0000314
3022.1	0.0000293
3020.1	0.0000263
3018.2	0.0000298
3016.3	0.0000368
3014.3	0.0000357
3012.4	0.0000304
3010.5	0.0000276
3008.6	0.0000256
3006.6	0.0000257
3004.7	0.0000313
3002.8	0.0000392
3000.8	0.0000418
2998.9	0.0000375
2997.0	0.0000330
2995.1	0.0000292
2993.1	0.0000268
2991.2	0.0000289
2989.3	0.0000324
2987.3	0.0000318
2985.4	0.0000271
2983.5	0.0000223
2981.6	0.0000199
2979.6	0.0000215
2977.7	0.0000252
2975.8	0.0000293
2973.8	0.0000356
2971.9	0.0000419
2970.0	0.0000437
2968.1	0.0000421
2966.1	0.0000360
2964.2	0.0000300
2962.3	0.0000364
2960.3	0.0000492
2958.4	0.0000528
2956.5	0.0000491
2954.6	0.0000465
2952.6	0.0000470
2950.7	0.0000505
2948.8	0.0000522
2946.8	0.0000469
2944.9	0.0000398
2943.0	0.0000363
2941.1	0.0000366
2939.1	0.0000399
2937.2	0.0000429
2935.3	0.0000485
2933.3	0.0000599
2931.4	0.0000686
2929.5	0.0000654
2927.6	0.0000575
2925.6	0.0000541
2923.7	0.0000535
2921.8	0.0000545
2919.8	0.0000582
2917.9	0.0000609
2916.0	0.0000606
2914.1	0.0000590
2912.1	0.0000561
2910.2	0.0000535
2908.3	0.0000529
2906.3	0.0000555
2904.4	0.0000603
2902.5	0.0000643
2900.6	0.0000658
2898.6	0.0000658
2896.7	0.0000677
2894.8	0.0000727
2892.8	0.0000762
2890.9	0.0000749
2889.0	0.0000705
2887.1	0.0000691
2885.1	0.0000755
2883.2	0.0000852
2881.3	0.0000885
2879.3	0.0000870
2877.4	0.0000894
2875.5	0.0000925
2873.6	0.0000922
2871.6	0.0000956
2869.7	0.0001050
2867.8	0.0001169
2865.8	0.0001298
2863.9	0.0001419
2862.0	0.0001498
2860.1	0.0001526
2858.1	0.0001523
2856.2	0.0001530
2854.3	0.0001584
2852.3	0.0001661
2850.4	0.0001688
2848.5	0.0001665
2846.6	0.0001647
2844.6	0.0001626
2842.7	0.0001536
2840.8	0.0001385
2838.8	0.0001231
2836.9	0.0001098
2835.0	0.0000986
2833.1	0.0000907
2831.1	0.0000897
2829.2	0.0000928
2827.3	0.0000934
2825.3	0.0000909
2823.4	0.0000909
2821.5	0.0000954
2819.6	0.0001013
2817.6	0.0001074
2815.7	0.0001098
2813.8	0.0001088
2811.8	0.0001136
2809.9	0.0001215
2808.0	0.0001242
2806.1	0.0001194
2804.1	0.0001059
2802.2	0.0000893
2800.3	0.0000766
2798.3	0.0000657
2796.4	0.0000526
2794.5	0.0000412
2792.6	0.0000342
2790.6	0.0000282
2788.7	0.0000253
2786.8	0.0000264
2784.8	0.0000261
2782.9	0.0000236
2781.0	0.0000281
2779.1	0.0000370
2777.1	0.0000373
2775.2	0.0000342
2773.3	0.0000373
2771.3	0.0000390
2769.4	0.0000343
2767.5	0.0000347
2765.6	0.0000472
2763.6	0.0000622
2761.7	0.0000701
2759.8	0.0000688
2757.8	0.0000633
2755.9	0.0000589
2754.0	0.0000565
2752.1	0.0000509
2750.1	0.0000386
2748.2	0.0000240
2746.3	0.0000117
2744.3	0.0000021
2742.4	-0.0000012
2740.5	0.0000024
2738.6	0.0000067
2736.6	0.0000101
2734.7	0.0000134
2732.8	0.0000147
2730.8	0.0000163
2728.9	0.0000216
2727.0	0.0000253
2725.1	0.0000234
2723.1	0.0000226
2721.2	0.0000258
2719.3	0.0000249
2717.3	0.0000208
2715.4	0.0000200
2713.5	0.0000201
2711.6	0.0000184
2709.6	0.0000162
2707.7	0.0000160
2705.8	0.0000184
2703.8	0.0000185
2701.9	0.0000147
2700.0	0.0000100
2698.1	0.0000051
2696.1	-0.0000021
2694.2	-0.0000095
2692.3	-0.0000119
2690.3	-0.0000084
2688.4	-0.0000039
2686.5	-0.0000021
2684.6	-0.0000026
2682.6	-0.0000032
2680.7	-0.0000021
2678.8	0.0000018
2676.8	0.0000067
2674.9	0.0000107
2673.0	0.0000093
2671.1	0.0000028
2669.1	-0.0000014
2667.2	0.0000012
2665.3	0.0000060
2663.3	0.0000072
2661.4	0.0000087
2659.5	0.0000130
2657.6	0.0000121
2655.6	0.0000039
2653.7	-0.0000016
2651.8	0.0000018
2649.8	0.0000059
2647.9	0.0000006
2646.0	-0.0000078
2644.1	-0.0000093
2642.1	-0.0000063
2640.2	-0.0000047
2638.3	-0.0000068
2636.3	-0.0000134
2634.4	-0.0000194
2632.5	-0.0000190
2630.6	-0.0000123
2628.6	-0.0000024
2626.7	0.0000051
2624.8	0.0000065
2622.8	0.0000055
2620.9	0.0000026
2619.0	-0.0000037
2617.1	-0.0000081
2615.1	-0.0000089
2613.2	-0.0000100
2611.3	-0.0000133
2609.3	-0.0000185
2607.4	-0.0000226
2605.5	-0.0000218
2603.6	-0.0000165
2601.6	-0.0000118
2599.7	-0.0000112
2597.8	-0.0000139
2595.8	-0.0000182
2593.9	-0.0000208
2592.0	-0.0000202
2590.1	-0.0000213
2588.1	-0.0000266
2586.2	-0.0000313
2584.3	-0.0000277
2582.3	-0.0000169
2580.4	-0.0000049
2578.5	0.0000034
2576.6	0.0000048
2574.6	0.0000016
2572.7	-0.0000038
2570.8	-0.0000091
2568.8	-0.0000071
2566.9	-0.0000011
2565.0	-0.0000017
2563.1	-0.0000060
2561.1	-0.0000073
2559.2	-0.0000085
2557.3	-0.0000144
2555.3	-0.0000207
2553.4	-0.0000212
2551.5	-0.0000175
2549.6	-0.0000113
2547.6	-0.0000038
2545.7	-0.0000014
2543.8	-0.0000065
2541.8	-0.0000116
2539.9	-0.0000101
2538.0	-0.0000061
2536.1	-0.0000069
2534.1	-0.0000138
2532.2	-0.0000191
2530.3	-0.0000175
2528.3	-0.0000147
2526.4	-0.0000135
2524.5	-0.0000108
2522.6	-0.0000112
2520.6	-0.0000134
2518.7	-0.0000111
2516.8	-0.0000085
2514.8	-0.0000120
2512.9	-0.0000192
2511.0	-0.0000237
2509.1	-0.0000247
2507.1	-0.0000275
2505.2	-0.0000307
2503.3	-0.0000266
2501.3	-0.0000192
2499.4	-0.0000153
2497.5	-0.0000107
2495.6	-0.0000062
2493.6	-0.0000070
2491.7	-0.0000110
2489.8	-0.0000153
2487.8	-0.0000187
2485.9	-0.0000189
2484.0	-0.0000164
2482.1	-0.0000125
2480.1	-0.0000096
2478.2	-0.0000120
2476.3	-0.0000167
2474.3	-0.0000198
2472.4	-0.0000238
2470.5	-0.0000291
2468.6	-0.0000361
2466.6	-0.0000399
2464.7	-0.0000348
2462.8	-0.0000274
2460.8	-0.0000246
2458.9	-0.0000248
2457.0	-0.0000263
2455.1	-0.0000238
2453.1	-0.0000158
2451.2	-0.0000131
2449.3	-0.0000165
2447.3	-0.0000164
2445.4	-0.0000135
2443.5	-0.0000128
2441.6	-0.0000143
2439.6	-0.0000174
2437.7	-0.0000213
2435.8	-0.0000200
2433.8	-0.0000141
2431.9	-0.0000155
2430.0	-0.0000255
2428.1	-0.0000302
2426.1	-0.0000261
2424.2	-0.0000217
2422.3	-0.0000194
2420.3	-0.0000166
2418.4	-0.0000167
2416.5	-0.0000195
2414.6	-0.0000177
2412.6	-0.0000109
2410.7	-0.0000065
2408.8	-0.0000064
2406.8	-0.0000058
2404.9	-0.0000068
2403.0	-0.0000128
2401.1	-0.0000161
2399.1	-0.0000165
2397.2	-0.0000211
2395.3	-0.0000247
2393.3	-0.0000199
2391.4	-0.0000124
2389.5	-0.0000086
2387.6	-0.0000062
2385.6	-0.0000076
2383.7	-0.0000177
2381.8	-0.0000281
2379.8	-0.0000293
2377.9	-0.0000266
2376.0	-0.0000307
2374.1	-0.0000434
2372.1	-0.0000551
2370.2	-0.0000615
2368.3	-0.0000655
2366.3	-0.0000666
2364.4	-0.0000640
2362.5	-0.0000565
2360.6	-0.0000483
2358.6	-0.0000469
2356.7	-0.0000494
2354.8	-0.0000457
2352.8	-0.0000367
2350.9	-0.0000311
2349.0	-0.0000284
2347.1	-0.0000206
2345.1	-0.0000051
2343.2	0.0000181
2341.3	0.0000458
2339.3	0.0000678
2337.4	0.0000756
2335.5	0.0000666
2333.6	0.0000459
2331.6	0.0000213
2329.7	-0.0000007
2327.8	-0.0000146
2325.8	-0.0000217
2323.9	-0.0000258
2322.0	-0.0000277
2320.1	-0.0000280
2318.1	-0.0000266
2316.2	-0.0000252
2314.3	-0.0000246
2312.3	-0.0000205
2310.4	-0.0000164
2308.5	-0.0000172
2306.6	-0.0000169
2304.6	-0.0000142
2302.7	-0.0000176
2300.8	-0.0000237
2298.8	-0.0000231
2296.9	-0.0000216
2295.0	-0.0000254
2293.1	-0.0000313
2291.1	-0.0000372
2289.2	-0.0000403
2287.3	-0.0000357
2285.3	-0.0000285
2283.4	-0.0000263
2281.5	-0.0000268
2279.6	-0.0000253
2277.6	-0.0000186
2275.7	-0.0000082
2273.8	-0.0000041
2271.8	-0.0000119
2269.9	-0.0000206
2268.0	-0.0000210
2266.1	-0.0000180
2264.1	-0.0000193
2262.2	-0.0000245
2260.3	-0.0000299
2258.3	-0.0000328
2256.4	-0.0000322
2254.5	-0.0000292
2252.6	-0.0000267
2250.6	-0.0000263
2248.7	-0.0000250
2246.8	-0.0000194
2244.8	-0.0000124
2242.9	-0.0000105
2241.0	-0.0000139
2239.1	-0.0000149
2237.1	-0.0000140
2235.2	-0.0000185
2233.3	-0.0000232
2231.3	-0.0000193
2229.4	-0.0000120
2227.5	-0.0000106
2225.6	-0.0000139
2223.6	-0.0000193
2221.7	-0.0000266
2219.8	-0.0000300
2217.8	-0.0000272
2215.9	-0.0000243
2214.0	-0.0000226
2212.1	-0.0000192
2210.1	-0.0000134
2208.2	-0.0000082
2206.3	-0.0000078
2204.3	-0.0000132
2202.4	-0.0000178
2200.5	-0.0000166
2198.6	-0.0000158
2196.6	-0.0000162
2194.7	-0.0000136
2192.8	-0.0000131
2190.8	-0.0000150
2188.9	-0.0000126
2187.0	-0.0000107
2185.1	-0.0000156
2183.1	-0.0000219
2181.2	-0.0000218
2179.3	-0.0000173
2177.3	-0.0000128
2175.4	-0.0000092
2173.5	-0.0000064
2171.6	-0.0000049
2169.6	-0.0000098
2167.7	-0.0000191
2165.8	-0.0000195
2163.8	-0.0000099
2161.9	-0.0000033
2160.0	-0.0000035
2158.1	-0.0000071
2156.1	-0.0000146
2154.2	-0.0000228
2152.3	-0.0000270
2150.3	-0.0000308
2148.4	-0.0000354
2146.5	-0.0000350
2144.6	-0.0000297
2142.6	-0.0000200
2140.7	-0.0000065
2138.8	0.0000041
2136.8	0.0000054
2134.9	-0.0000009
2133.0	-0.0000064
2131.1	-0.0000088
2129.1	-0.0000144
2127.2	-0.0000227
2125.3	-0.0000243
2123.3	-0.0000163
2121.4	-0.0000094
2119.5	-0.0000123
2117.6	-0.0000160
2115.6	-0.0000114
2113.7	-0.0000034
2111.8	0.0000003
2109.8	-0.0000036
2107.9	-0.0000090
2106.0	-0.0000073
2104.1	-0.0000032
2102.1	-0.0000080
2100.2	-0.0000212
2098.3	-0.0000338
2096.3	-0.0000499
2094.4	-0.0000880
2092.5	-0.0001660
2090.6	-0.0002763
2088.6	-0.0003515
2086.7	-0.0003222
2084.8	-0.0002194
2082.8	-0.0001291
2080.9	-0.0000855
2079.0	-0.0000731
2077.1	-0.0000718
2075.1	-0.0000726
2073.2	-0.0000734
2071.3	-0.0000742
2069.3	-0.0000753
2067.4	-0.0000757
2065.5	-0.0000730
2063.6	-0.0000655
2061.6	-0.0000522
2059.7	-0.0000341
2057.8	-0.0000149
2055.8	0.0000019
2053.9	0.0000129
2052.0	0.0000149
2050.1	0.0000144
2048.1	0.0000176
2046.2	0.0000232
2044.3	0.0000272
2042.3	0.0000298
2040.4	0.0000370
2038.5	0.0000469
2036.6	0.0000515
2034.6	0.0000539
2032.7	0.0000556
2030.8	0.0000509
2028.8	0.0000446
2026.9	0.0000457
2025.0	0.0000490
2023.1	0.0000500
2021.1	0.0000480
2019.2	0.0000398
2017.3	0.0000301
2015.3	0.0000265
2013.4	0.0000264
2011.5	0.0000256
2009.6	0.0000262
2007.6	0.0000281
2005.7	0.0000281
2003.8	0.0000277
2001.8	0.0000277
1999.9	0.0000250
1998.0	0.0000202
1996.1	0.0000144
1994.1	0.0000098
1992.2	0.0000126
1990.3	0.0000230
1988.3	0.0000292
1986.4	0.0000258
1984.5	0.0000210
1982.6	0.0000218
1980.6	0.0000246
1978.7	0.0000238
1976.8	0.0000200
1974.8	0.0000167
1972.9	0.0000167
1971.0	0.0000189
1969.1	0.0000205
1967.1	0.0000205
1965.2	0.0000208
1963.3	0.0000212
1961.4	0.0000210
1959.4	0.0000243
1957.5	0.0000299
1955.6	0.0000288
1953.6	0.0000237
1951.7	0.0000242
1949.8	0.0000273
1947.9	0.0000249
1945.9	0.0000176
1944.0	0.0000098
1942.1	0.0000097
1940.1	0.0000176
1938.2	0.0000229
1936.3	0.0000252
1934.4	0.0000297
1932.4	0.0000327
1930.5	0.0000328
1928.6	0.0000331
1926.6	0.0000316
1924.7	0.0000241
1922.8	0.0000170
1920.9	0.0000136
1918.9	0.0000101
1917.0	0.0000147
1915.1	0.0000260
1913.1	0.0000288
1911.2	0.0000270
1909.3	0.0000292
1907.4	0.0000344
1905.4	0.0000399
1903.5	0.0000415
1901.6	0.0000417
1899.6	0.0000432
1897.7	0.0000411
1895.8	0.0000361
1893.9	0.0000334
1891.9	0.0000296
1890.0	0.0000268
1888.1	0.0000340
1886.1	0.0000433
1884.2	0.0000461
1882.3	0.0000462
1880.4	0.0000446
1878.4	0.0000402
1876.5	0.0000366
1874.6	0.0000358
1872.6	0.0000296
1870.7	0.0000130
1868.8	0.0000046
1866.9	0.0000195
1864.9	0.0000412
1863.0	0.0000524
1861.1	0.0000528
1859.1	0.0000479
1857.2	0.0000469
1855.3	0.0000532
1853.4	0.0000602
1851.4	0.0000608
1849.5	0.0000522
1847.6	0.0000285
1845.6	-0.0000058
1843.7	-0.0000117
1841.8	0.0000247
1839.9	0.0000622
1837.9	0.0000784
1836.0	0.0000850
1834.1	0.0000847
1832.1	0.0000696
1830.2	0.0000538
1828.3	0.0000540
1826.4	0.0000601
1824.4	0.0000737
1822.5	0.0000961
1820.6	0.0001063
1818.6	0.0001032
1816.7	0.0001042
1814.8	0.0001096
1812.9	0.0001075
1810.9	0.0001022
1809.0	0.0001065
1807.1	0.0001164
1805.1	0.0001158
1803.2	0.0000987
1801.3	0.0000850
1799.4	0.0000912
1797.4	0.0001014
1795.5	0.0000866
1793.6	0.0000527
1791.6	0.0000516
1789.7	0.0000972
1787.8	0.0001309
1785.9	0.0001290
1783.9	0.0001249
1782.0	0.0001296
1780.1	0.0001368
1778.1	0.0001417
1776.2	0.0001225
1774.3	0.0000723
1772.4	0.0000358
1770.4	0.0000406
1768.5	0.0000656
1766.6	0.0001006
1764.6	0.0001211
1762.7	0.0001117
1760.8	0.0001136
1758.9	0.0001290
1756.9	0.0001351
1755.0	0.0001330
1753.1	0.0001061
1751.1	0.0000750
1749.2	0.0000867
1747.3	0.0001224
1745.4	0.0001432
1743.4	0.0001438
1741.5	0.0001330
1739.6	0.0001303
1737.6	0.0001108
1735.7	0.0000329
1733.8	-0.0000099
1731.9	0.0000643
1729.9	0.0001585
1728.0	0.0002017
1726.1	0.0002158
1724.1	0.0002203
1722.2	0.0002086
1720.3	0.0001476
1718.4	0.0000678
1716.4	0.0000706
1714.5	0.0001672
1712.6	0.0002791
1710.6	0.0003776
1708.7	0.0004846
1706.8	0.0006342
1704.9	0.0008256
1702.9	0.0009630
1701.0	0.0010115
1699.1	0.0010525
1697.1	0.0010916
1695.2	0.0011369
1693.3	0.0012220
1691.4	0.0012959
1689.4	0.0013605
1687.5	0.0014602
1685.6	0.0016462
1683.6	0.0020023
1681.7	0.0024476
1679.8	0.0027649
1677.9	0.0028461
1675.9	0.0027481
1674.0	0.0025761
1672.1	0.0023497
1670.1	0.0020772
1668.2	0.0018298
1666.3	0.0016123
1664.4	0.0013807
1662.4	0.0011692
1660.5	0.0010128
1658.6	0.0008716
1656.6	0.0006763
1654.7	0.0004408
1652.8	0.0003423
1650.9	0.0004320
1648.9	0.0005045
1647.0	0.0005018
1645.1	0.0005414
1643.1	0.0006189
1641.2	0.0006600
1639.3	0.0006414
1637.4	0.0005786
1635.4	0.0005714
1633.5	0.0006835
1631.6	0.0008126
1629.6	0.0008829
1627.7	0.0009247
1625.8	0.0009490
1623.9	0.0009572
1621.9	0.0009654
1620.0	0.0009314
1618.1	0.0008293
1616.1	0.0007481
1614.2	0.0007366
1612.3	0.0007280
1610.4	0.0006886
1608.4	0.0006407
1606.5	0.0006040
1604.6	0.0005852
1602.6	0.0005777
1600.7	0.0005714
1598.8	0.0005606
1596.9	0.0005437
1594.9	0.0005196
1593.0	0.0004917
1591.1	0.0004657
1589.1	0.0004436
1587.2	0.0004258
1585.3	0.0004110
1583.4	0.0004030
1581.4	0.0004027
1579.5	0.0003991
1577.6	0.0004592
1575.6	0.0007400
1573.7	0.0011662
1571.8	0.0014030
1569.9	0.0013200
1567.9	0.0010638
1566.0	0.0007772
1564.1	0.0005082
1562.1	0.0002285
1560.2	-0.0000259
1558.3	-0.0000876
1556.4	0.0000260
1554.4	0.0001307
1552.5	0.0001814
1550.6	0.0002104
1548.6	0.0002207
1546.7	0.0001941
1544.8	0.0001209
1542.9	0.0000179
1540.9	-0.0000716
1539.0	-0.0000511
1537.1	0.0000643
1535.1	0.0001327
1533.2	0.0001437
1531.3	0.0001639
1529.4	0.0001671
1527.4	0.0001290
1525.5	0.0000737
1523.6	-0.0000019
1521.6	-0.0000600
1519.7	-0.0000320
1517.8	0.0000378
1515.9	0.0000837
1513.9	0.0001042
1512.0	0.0000963
1510.1	0.0000353
1508.1	-0.0000641
1506.2	-0.0000819
1504.3	0.0000307
1502.4	0.0001328
1500.4	0.0001346
1498.5	0.0000837
1496.6	0.0000634
1494.6	0.0001042
1492.7	0.0001401
1490.8	0.0001309
1488.9	0.0001266
1486.9	0.0001601
1485.0	0.0002093
1483.1	0.0002603
1481.1	0.0003341
1479.2	0.0004401
1477.3	0.0005429
1475.4	0.0006217
1473.4	0.0007508
1471.5	0.0010322
1469.6	0.0014072
1467.6	0.0016950
1465.7	0.0018103
1463.8	0.0017619
1461.9	0.0015471
1459.9	0.0011786
1458.0	0.0007802
1456.1	0.0005438
1454.1	0.0004835
1452.2	0.0004440
1450.3	0.0003623
1448.4	0.0002879
1446.4	0.0002541
1444.5	0.0002433
1442.6	0.0002268
1440.6	0.0001777
1438.7	0.0000834
1436.8	0.0000234
1434.9	0.0000796
1432.9	0.0001714
1431.0	0.0001887
1429.1	0.0001516
1427.1	0.0001197
1425.2	0.0001063
1423.3	0.0000926
1421.4	0.0000502
1419.4	0.0000133
1417.5	0.0000474
1415.6	0.0001189
1413.6	0.0001593
1411.7	0.0001682
1409.8	0.0001682
1407.9	0.0001596
1405.9	0.0001455
1404.0	0.0001507
1402.1	0.0001738
1400.1	0.0001974
1398.2	0.0002290
1396.3	0.0002603
1394.4	0.0002724
1392.4	0.0002593
1390.5	0.0001969
1388.6	0.0000974
1386.6	0.0000359
1384.7	0.0000386
1382.8	0.0000577
1380.9	0.0000690
1378.9	0.0000896
1377.0	0.0001313
1375.1	0.0002046
1373.1	0.0003337
1371.2	0.0005071
1369.3	0.0006586
1367.4	0.0007183
1365.4	0.0006503
1363.5	0.0004975
1361.6	0.0003597
1359.6	0.0002799
1357.7	0.0002303
1355.8	0.0001842
1353.9	0.0001428
1351.9	0.0001102
1350.0	0.0000818
1348.1	0.0000572
1346.1	0.0000383
1344.2	0.0000180
1342.3	-0.0000146
1340.4	-0.0000506
1338.4	-0.0000638
1336.5	-0.0000547
1334.6	-0.0000483
1332.6	-0.0000493
1330.7	-0.0000472
1328.8	-0.0000431
1326.9	-0.0000456
1324.9	-0.0000522
1323.0	-0.0000552
1321.1	-0.0000559
1319.1	-0.0000566
1317.2	-0.0000538
1315.3	-0.0000483
1313.4	-0.0000428
1311.4	-0.0000348
1309.5	-0.0000277
1307.6	-0.0000247
1305.6	-0.0000196
1303.7	-0.0000126
1301.8	-0.0000089
1299.9	-0.0000075
1297.9	-0.0000082
1296.0	-0.0000090
1294.1	-0.0000022
1292.1	0.0000171
1290.2	0.0000425
1288.3	0.0000672
1286.4	0.0000937
1284.4	0.0001203
1282.5	0.0001374
1280.6	0.0001370
1278.6	0.0001179
1276.7	0.0000897
1274.8	0.0000654
1272.9	0.0000529
1270.9	0.0000501
1269.0	0.0000486
1267.1	0.0000436
1265.1	0.0000431
1263.2	0.0000553
1261.3	0.0000798
1259.4	0.0001215
1257.4	0.0001793
1255.5	0.0002346
1253.6	0.0002773
1251.6	0.0003084
1249.7	0.0003230
1247.8	0.0003154
1245.9	0.0002898
1243.9	0.0002580
1242.0	0.0002251
1240.1	0.0001856
1238.1	0.0001379
1236.2	0.0000903
1234.3	0.0000525
1232.4	0.0000312
1230.4	0.0000268
1228.5	0.0000297
1226.6	0.0000330
1224.6	0.0000382
1222.7	0.0000416
1220.8	0.0000414
1218.9	0.0000428
1216.9	0.0000462
1215.0	0.0000586
1213.1	0.0000897
1211.1	0.0001236
1209.2	0.0001376
1207.3	0.0001278
1205.4	0.0001028
1203.4	0.0000767
1201.5	0.0000595
1199.6	0.0000458
1197.6	0.0000336
1195.7	0.0000296
1193.8	0.0000331
1191.9	0.0000420
1189.9	0.0000535
1188.0	0.0000615
1186.1	0.0000681
1184.1	0.0000716
1182.2	0.0000635
1180.3	0.0000515
1178.4	0.0000490
1176.4	0.0000519
1174.5	0.0000567
1172.6	0.0000628
1170.6	0.0000706
1168.7	0.0000907
1166.8	0.0001225
1164.9	0.0001564
1162.9	0.0001983
1161.0	0.0002550
1159.1	0.0003155
1157.1	0.0003640
1155.2	0.0003983
1153.3	0.0004233
1151.4	0.0004278
1149.4	0.0003974
1147.5	0.0003410
1145.6	0.0002787
1143.6	0.0002230
1141.7	0.0001774
1139.8	0.0001418
1137.9	0.0001150
1135.9	0.0000949
1134.0	0.0000795
1132.1	0.0000674
1130.1	0.0000609
1128.2	0.0000622
1126.3	0.0000629
1124.4	0.0000593
1122.4	0.0000558
1120.5	0.0000501
1118.6	0.0000410
1116.6	0.0000317
1114.7	0.0000229
1112.8	0.0000236
1110.9	0.0000370
1108.9	0.0000449
1107.0	0.0000404
1105.1	0.0000350
1103.1	0.0000355
1101.2	0.0000464
1099.3	0.0000664
1097.4	0.0000862
1095.4	0.0001084
1093.5	0.0001426
1091.6	0.0001888
1089.6	0.0002435
1087.7	0.0003026
1085.8	0.0003516
1083.9	0.0003678
1081.9	0.0003434
1080.0	0.0002903
1078.1	0.0002278
1076.1	0.0001716
1074.2	0.0001254
1072.3	0.0000882
1070.4	0.0000656
1068.4	0.0000556
1066.5	0.0000476
1064.6	0.0000417
1062.6	0.0000397
1060.7	0.0000384
1058.8	0.0000417
1056.9	0.0000510
1054.9	0.0000549
1053.0	0.0000490
1051.1	0.0000496
1049.1	0.0000560
1047.2	0.0000523
1045.3	0.0000546
1043.4	0.0000807
1041.4	0.0001106
1039.5	0.0001287
1037.6	0.0001519
1035.6	0.0001994
1033.7	0.0002703
1031.8	0.0003568
1029.9	0.0004541
1027.9	0.0005573
1026.0	0.0006514
1024.1	0.0007170
1022.1	0.0007504
1020.2	0.0007589
1018.3	0.0007417
1016.4	0.0006888
1014.4	0.0006123
1012.5	0.0005324
1010.6	0.0004337
1008.6	0.0003057
1006.7	0.0001819
1004.8	0.0001028
1002.9	0.0000775
1000.9	0.0000769
999.0	0.0000713
997.1	0.0000617
995.1	0.0000567
993.2	0.0000528
991.3	0.0000481
989.4	0.0000477
987.4	0.0000495
985.5	0.0000446
983.6	0.0000330
981.6	0.0000255
979.7	0.0000288
977.8	0.0000345
975.9	0.0000354
973.9	0.0000374
972.0	0.0000367
970.1	0.0000270
968.1	0.0000145
966.2	0.0000031
964.3	0.0000010
962.4	0.0000153
960.4	0.0000370
958.5	0.0000548
956.6	0.0000677
954.6	0.0000871
952.7	0.0001271
950.8	0.0001851
948.9	0.0002330
946.9	0.0002383
945.0	0.0001991
943.1	0.0001398
941.1	0.0000842
939.2	0.0000593
937.3	0.0000786
935.4	0.0001118
933.4	0.0001283
931.5	0.0001332
929.6	0.0001248
927.6	0.0000876
925.7	0.0000364
923.8	0.0000057
921.9	0.0000100
919.9	0.0000312
918.0	0.0000406
916.1	0.0000340
914.1	0.0000287
912.2	0.0000347
910.3	0.0000449
908.4	0.0000456
906.4	0.0000377
904.5	0.0000402
902.6	0.0000653
900.6	0.0000970
898.7	0.0001096
896.8	0.0001070
894.9	0.0001203
892.9	0.0001468
891.0	0.0001635
889.1	0.0002112
887.1	0.0003313
885.2	0.0004602
883.3	0.0004830
881.4	0.0003601
879.4	0.0001890
877.5	0.0000923
875.6	0.0000746
873.6	0.0000782
871.7	0.0000932
869.8	0.0001205
867.9	0.0001376
865.9	0.0001443
864.0	0.0001607
862.1	0.0001908
860.1	0.0002185
858.2	0.0002202
856.3	0.0002100
854.4	0.0002216
852.4	0.0002411
850.5	0.0002465
848.6	0.0002627
846.6	0.0002999
844.7	0.0003155
842.8	0.0002859
840.9	0.0002433
838.9	0.0002135
837.0	0.0001940
835.1	0.0001859
833.1	0.0001826
831.2	0.0001608
829.3	0.0001195
827.4	0.0000977
825.4	0.0001090
823.5	0.0001131
821.6	0.0000930
819.6	0.0000752
817.7	0.0000785
815.8	0.0001037
813.9	0.0001468
811.9	0.0002173
810.0	0.0003232
808.1	0.0004408
806.1	0.0005651
804.2	0.0007324
802.3	0.0009317
800.4	0.0011149
798.4	0.0012790
796.5	0.0014623
794.6	0.0016872
792.6	0.0018883
790.7	0.0020020
788.8	0.0020808
786.9	0.0021480
784.9	0.0021501
783.0	0.0020875
781.1	0.0020007
779.1	0.0019019
777.2	0.0017768
775.3	0.0016021
773.4	0.0013767
771.4	0.0011400
769.5	0.0009343
767.6	0.0007781
765.6	0.0006876
763.7	0.0006434
761.8	0.0006167
759.9	0.0006237
757.9	0.0006529
756.0	0.0006471
754.1	0.0006038
752.1	0.0005785
750.2	0.0005958
748.3	0.0005957
746.4	0.0004956
744.4	0.0003280
742.5	0.0002109
740.6	0.0001736
738.6	0.0001765
736.7	0.0001787
734.8	0.0001673
732.9	0.0001639
730.9	0.0001718
729.0	0.0002049
727.1	0.0002737
725.1	0.0003512
723.2	0.0003448
721.3	0.0002214
719.4	0.0001269
717.4	0.0000905
715.5	0.0000491
713.6	0.0000314
711.6	0.0000256
709.7	0.0000653
707.8	0.0001584
705.9	0.0002314
703.9	0.0002764
702.0	0.0002628
700.1	0.0001850
698.1	0.0001274
696.2	0.0000988
694.3	0.0000686
692.4	0.0000589
690.4	0.0000434
688.5	0.0000039
686.6	-0.0000112
684.6	0.0000514
682.7	0.0001564
680.8	0.0001510
678.9	0.0000678
676.9	0.0001154
675.0	0.0002811
673.1	0.0003786
671.1	0.0003212
669.2	0.0002037
667.3	0.0001216
665.4	0.0001133
663.4	0.0001951
661.5	0.0002122
659.6	0.0000670
657.6	-0.0000612
655.7	-0.0000473
653.8	-0.0000081
651.9	-0.0000198
649.9	0.0000037
648.0	0.0000711
646.1	0.0001106
644.1	0.0000872
642.2	-0.0000010
640.3	-0.0000645
638.4	-0.0000262
636.4	0.0000543
634.5	0.0000889
632.6	0.0000818
630.6	0.0001311
628.7	0.0002142
626.8	0.0001544
624.9	0.0000202
622.9	-0.0000418
621.0	-0.0000872
619.1	-0.0000681
617.1	0.0000647
615.2	0.0001673
613.3	0.0001819
611.4	0.0001706
609.4	0.0001338
607.5	0.0000677
605.6	0.0000159
603.6	0.0000058
601.7	0.0000224
599.8	0.0000169
597.9	-0.0000149
595.9	-0.0000122
594.0	0.0000372
592.1	0.0000581
590.1	0.0000286
588.2	0.0000033
586.3	0.0000061
584.4	0.0000007
582.4	-0.0000601
580.5	-0.0000927
578.6	-0.0000243
576.6	0.0001164
574.7	0.0002524
572.8	0.0002597
570.9	0.0001827
568.9	0.0001165
567.0	0.0000220
565.1	-0.0000853
563.1	-0.0001565
561.2	-0.0002031
559.3	-0.0002086
557.4	-0.0001035
555.4	0.0000452
553.5	0.0001367
551.6	0.0001754
549.6	0.0001733
547.7	0.0001241
545.8	0.0000428
543.9	0.0000450
541.9	0.0001418
540.0	0.0002311
538.1	0.0002924
536.1	0.0002930
534.2	0.0001630
532.3	-0.0000646
530.4	-0.0002014
528.4	-0.0003386
526.5	-0.0006056
524.6	-0.0007153
522.6	-0.0007775
520.7	-0.0013563
518.8	-0.0022950
516.9	-0.0027837
514.9	-0.0023915
513.0	-0.0013699
511.1	-0.0001561
509.1	0.0029144
507.2	0.0090720
505.3	0.0125290
503.4	0.0085010
501.4	0.0023930
499.5	-0.0001553
497.6	-0.0002149
495.6	-0.0000867
493.7	-0.0002231
491.8	-0.0002554
489.9	-0.0000813
487.9	-0.0000867
486.0	-0.0003709
484.1	-0.0004799
482.1	-0.0003266
480.2	-0.0002962
478.3	-0.0004885
476.4	-0.0006857
474.4	-0.0006069
472.5	-0.0002714
470.6	-0.0000103
468.6	0.0000093
466.7	-0.0000859
464.8	-0.0000514
462.9	0.0001733
460.9	0.0003468
459.0	0.0001668
457.1	-0.0003190
455.1	-0.0005482
453.2	-0.0002700
451.3	-0.0000332
449.4	-0.0000305
447.4	0.0000097
445.5	-0.0000041
443.6	-0.0000086
441.6	0.0001738
439.7	0.0002598
437.8	0.0000575
435.9	-0.0001300
433.9	-0.0000568
432.0	0.0000834
430.1	0.0000680
428.1	-0.0000774
426.2	-0.0001971
424.3	-0.0001728
422.4	0.0000494
420.4	0.0003498
418.5	0.0004190
416.6	0.0001753
414.6	-0.0002305
412.7	-0.0004946
410.8	-0.0003665
408.9	-0.0001124
406.9	-0.0000508
405.0	-0.0001101
403.1	-0.0002735
401.1	-0.0006617
399.2	-0.0008626
397.3	-0.0004593
395.4	0.0001144
393.4	0.0003853
391.5	0.0002909
389.6	-0.0000118
387.6	-0.0001415
385.7	0.0000173
383.8	0.0002387
381.9	0.0004100
379.9	0.0005025
378.0	0.0004231
376.1	0.0002250
374.1	0.0000239
372.2	-0.0000995
370.3	-0.0000648
368.4	0.0000523
