3997.9	0.0000226
3996.0	0.0000085
3994.1	-0.0000029
3992.1	-0.0000013
3990.2	0.0000090
3988.3	0.0000155
3986.3	0.0000095
3984.4	0.0000003
3982.5	-0.0000037
3980.6	-0.0000103
3978.6	-0.0000214
3976.7	-0.0000242
3974.8	-0.0000144
3972.8	-0.0000036
3970.9	0.0000019
3969.0	0.0000055
3967.1	0.0000072
3965.1	0.0000047
3963.2	0.0000018
3961.3	0.0000061
3959.3	0.0000176
3957.4	0.0000297
3955.5	0.0000319
3953.6	0.0000202
3951.6	0.0000035
3949.7	-0.0000102
3947.8	-0.0000209
3945.8	-0.0000284
3943.9	-0.0000302
3942.0	-0.0000241
3940.1	-0.0000098
3938.1	0.0000053
3936.2	0.0000114
3934.3	0.0000125
3932.3	0.0000123
3930.4	0.0000090
3928.5	0.0000021
3926.6	-0.0000072
3924.6	-0.0000135
3922.7	-0.0000111
3920.8	0.0000012
3918.8	0.0000125
3916.9	0.0000084
3915.0	-0.0000001
3913.1	0.0000005
3911.1	0.0000011
3909.2	0.0000032
3907.3	0.0000194
3905.3	0.0000359
3903.4	0.0000370
3901.5	0.0000346
3899.6	0.0000290
3897.6	0.0000092
3895.7	-0.0000100
3893.8	-0.0000101
3891.8	0.0000004
3889.9	0.0000079
3888.0	0.0000166
3886.1	0.0000230
3884.1	0.0000211
3882.2	0.0000236
3880.3	0.0000191
3878.3	-0.0000025
3876.4	-0.0000130
3874.5	-0.0000038
3872.6	0.0000105
3870.6	0.0000197
3868.7	0.0000204
3866.8	0.0000209
3864.8	0.0000254
3862.9	0.0000248
3861.0	0.0000165
3859.1	0.0000196
3857.1	0.0000614
3855.2	0.0001266
3853.3	0.0001461
3851.3	0.0000975
3849.4	0.0000417
3847.5	0.0000217
3845.6	0.0000218
3843.6	0.0000164
3841.7	0.0000109
3839.8	0.0000197
3837.8	0.0000342
3835.9	0.0000424
3834.0	0.0000419
3832.1	0.0000293
3830.1	0.0000111
3828.2	0.0000021
3826.3	0.0000058
3824.3	0.0000236
3822.4	0.0000456
3820.5	0.0000488
3818.6	0.0000443
3816.6	0.0000405
3814.7	0.0000205
3812.8	0.0000012
3810.8	0.0000020
3808.9	0.0000113
3807.0	0.0000133
3805.1	0.0000126
3803.1	0.0000224
3801.2	0.0000250
3799.3	0.0000083
3797.3	-0.0000051
3795.4	-0.0000077
3793.5	-0.0000083
3791.6	-0.0000072
3789.6	-0.0000051
3787.7	-0.0000022
3785.8	0.0000013
3783.8	-0.0000018
3781.9	-0.0000071
3780.0	-0.0000080
3778.1	-0.0000101
3776.1	-0.0000114
3774.2	-0.0000041
3772.3	0.0000081
3770.3	0.0000112
3768.4	-0.0000000
3766.5	-0.0000106
3764.6	-0.0000080
3762.6	0.0000010
3760.7	0.0000061
3758.8	0.0000068
3756.8	0.0000093
3754.9	0.0000305
3753.0	0.0000754
3751.1	0.0001095
3749.1	0.0001075
3747.2	0.0001021
3745.3	0.0001077
3743.3	0.0000780
3741.4	0.0000208
3739.5	-0.0000024
3737.6	0.0000121
3735.6	0.0000321
3733.7	0.0000411
3731.8	0.0000258
3729.8	-0.0000006
3727.9	-0.0000029
3726.0	0.0000121
3724.1	0.0000134
3722.1	0.0000016
3720.2	-0.0000104
3718.3	-0.0000152
3716.3	-0.0000055
3714.4	0.0000210
3712.5	0.0000436
3710.6	0.0000327
3708.6	-0.0000006
3706.7	-0.0000233
3704.8	-0.0000238
3702.8	-0.0000146
3700.9	-0.0000141
3699.0	-0.0000251
3697.1	-0.0000374
3695.1	-0.0000344
3693.2	-0.0000112
3691.3	0.0000312
3689.3	0.0000705
3687.4	0.0000592
3685.5	0.0000126
3683.6	-0.0000120
3681.6	-0.0000121
3679.7	-0.0000041
3677.8	0.0000168
3675.8	0.0000393
3673.9	0.0000572
3672.0	0.0000796
3670.1	0.0000732
3668.1	0.0000243
3666.2	-0.0000146
3664.3	-0.0000230
3662.3	-0.0000219
3660.4	-0.0000151
3658.5	0.0000065
3656.6	0.0000274
3654.6	0.0000313
3652.7	0.0000398
3650.8	0.0000526
3648.8	0.0000389
3646.9	0.0000069
3645.0	-0.0000102
3643.1	-0.0000065
3641.1	-0.0000028
3639.2	-0.0000112
3637.3	-0.0000230
3635.3	-0.0000264
3633.4	-0.0000094
3631.5	0.0000317
3629.6	0.0000610
3627.6	0.0000461
3625.7	0.0000152
3623.8	0.0000048
3621.8	0.0000174
3619.9	0.0000345
3618.0	0.0000351
3616.1	0.0000239
3614.1	0.0000139
3612.2	0.0000122
3610.3	0.0000233
3608.3	0.0000289
3606.4	0.0000168
3604.5	0.0000053
3602.6	0.0000028
3600.6	-0.0000010
3598.7	-0.0000084
3596.8	-0.0000101
3594.8	-0.0000019
3592.9	0.0000061
3591.0	0.0000093
3589.1	0.0000124
3587.1	0.0000145
3585.2	0.0000115
3583.3	0.0000063
3581.3	0.0000062
3579.4	0.0000157
3577.5	0.0000267
3575.6	0.0000303
3573.6	0.0000286
3571.7	0.0000266
3569.8	0.0000250
3567.8	0.0000244
3565.9	0.0000189
3564.0	0.0000087
3562.1	0.0000055
3560.1	0.0000076
3558.2	0.0000020
3556.3	-0.0000080
3554.3	-0.0000111
3552.4	-0.0000084
3550.5	-0.0000020
3548.6	0.0000113
3546.6	0.0000246
3544.7	0.0000256
3542.8	0.0000161
3540.8	0.0000106
3538.9	0.0000121
3537.0	0.0000114
3535.1	0.0000088
3533.1	0.0000032
3531.2	-0.0000080
3529.3	-0.0000164
3527.3	-0.0000121
3525.4	0.0000035
3523.5	0.0000159
3521.6	0.0000148
3519.6	0.0000092
3517.7	0.0000059
3515.8	-0.0000012
3513.8	-0.0000102
3511.9	-0.0000117
3510.0	-0.0000088
3508.1	-0.0000112
3506.1	-0.0000116
3504.2	-0.0000034
3502.3	0.0000039
3500.3	0.0000037
3498.4	0.0000042
3496.5	0.0000116
3494.6	0.0000175
3492.6	0.0000114
3490.7	-0.0000002
3488.8	-0.0000055
3486.8	-0.0000043
3484.9	-0.0000040
3483.0	-0.0000067
3481.1	-0.0000062
3479.1	0.0000021
3477.2	0.0000088
3475.3	-0.0000003
3473.3	-0.0000149
3471.4	-0.0000089
3469.5	0.0000125
3467.6	0.0000205
3465.6	0.0000073
3463.7	-0.0000109
3461.8	-0.0000183
3459.8	-0.0000135
3457.9	-0.0000071
3456.0	-0.0000063
3454.1	-0.0000059
3452.1	-0.0000003
3450.2	0.0000075
3448.3	0.0000119
3446.3	0.0000063
3444.4	-0.0000062
3442.5	-0.0000122
3440.6	-0.0000089
3438.6	-0.0000024
3436.7	0.0000040
3434.8	0.0000086
3432.8	0.0000168
3430.9	0.0000263
3429.0	0.0000208
3427.1	0.0000011
3425.1	-0.0000138
3423.2	-0.0000142
3421.3	-0.0000034
3419.3	0.0000049
3417.4	0.0000006
3415.5	-0.0000031
3413.6	0.0000056
3411.6	0.0000161
3409.7	0.0000177
3407.8	0.0000127
3405.8	0.0000046
3403.9	-0.0000008
3402.0	0.0000018
3400.1	0.0000077
3398.1	0.0000095
3396.2	0.0000072
3394.3	0.0000050
3392.3	0.0000085
3390.4	0.0000159
3388.5	0.0000128
3386.6	0.0000006
3384.6	0.0000054
3382.7	0.0000263
3380.8	0.0000328
3378.8	0.0000253
3376.9	0.0000187
3375.0	0.0000108
3373.1	0.0000050
3371.1	0.0000056
3369.2	0.0000085
3367.3	0.0000133
3365.3	0.0000200
3363.4	0.0000238
3361.5	0.0000249
3359.6	0.0000273
3357.6	0.0000255
3355.7	0.0000124
3353.8	-0.0000011
3351.8	-0.0000045
3349.9	-0.0000033
3348.0	0.0000021
3346.1	0.0000131
3344.1	0.0000205
3342.2	0.0000219
3340.3	0.0000248
3338.3	0.0000324
3336.4	0.0000372
3334.5	0.0000289
3332.6	0.0000121
3330.6	0.0000012
3328.7	0.0000042
3326.8	0.0000139
3324.8	0.0000150
3322.9	0.0000097
3321.0	0.0000116
3319.1	0.0000193
3317.1	0.0000228
3315.2	0.0000200
3313.3	0.0000165
3311.3	0.0000171
3309.4	0.0000191
3307.5	0.0000183
3305.6	0.0000154
3303.6	0.0000157
3301.7	0.0000191
3299.8	0.0000147
3297.8	0.0000071
3295.9	0.0000105
3294.0	0.0000181
3292.1	0.0000218
3290.1	0.0000231
3288.2	0.0000235
3286.3	0.0000285
3284.3	0.0000353
3282.4	0.0000340
3280.5	0.0000287
3278.6	0.0000283
3276.6	0.0000314
3274.7	0.0000347
3272.8	0.0000416
3270.8	0.0000508
3268.9	0.0000526
3267.0	0.0000480
3265.1	0.0000418
3263.1	0.0000322
3261.2	0.0000236
3259.3	0.0000252
3257.3	0.0000293
3255.4	0.0000244
3253.5	0.0000194
3251.6	0.0000225
3249.6	0.0000252
3247.7	0.0000260
3245.8	0.0000297
3243.8	0.0000326
3241.9	0.0000296
3240.0	0.0000290
3238.1	0.0000380
3236.1	0.0000460
3234.2	0.0000449
3232.3	0.0000404
3230.3	0.0000355
3228.4	0.0000317
3226.5	0.0000302
3224.6	0.0000301
3222.6	0.0000340
3220.7	0.0000409
3218.8	0.0000433
3216.8	0.0000402
3214.9	0.0000395
3213.0	0.0000432
3211.1	0.0000392
3209.1	0.0000229
3207.2	0.0000125
3205.3	0.0000197
3203.3	0.0000299
3201.4	0.0000279
3199.5	0.0000212
3197.6	0.0000233
3195.6	0.0000349
3193.7	0.0000452
3191.8	0.0000453
3189.8	0.0000376
3187.9	0.0000305
3186.0	0.0000287
3184.1	0.0000315
3182.1	0.0000332
3180.2	0.0000316
3178.3	0.0000322
3176.3	0.0000360
3174.4	0.0000363
3172.5	0.0000326
3170.6	0.0000303
3168.6	0.0000313
3166.7	0.0000321
3164.8	0.0000325
3162.8	0.0000346
3160.9	0.0000361
3159.0	0.0000364
3157.1	0.0000383
3155.1	0.0000382
3153.2	0.0000347
3151.3	0.0000349
3149.3	0.0000412
3147.4	0.0000459
3145.5	0.0000445
3143.6	0.0000440
3141.6	0.0000465
3139.7	0.0000415
3137.8	0.0000293
3135.8	0.0000242
3133.9	0.0000295
3132.0	0.0000359
3130.1	0.0000339
3128.1	0.0000249
3126.2	0.0000239
3124.3	0.0000334
3122.3	0.0000373
3120.4	0.0000309
3118.5	0.0000236
3116.6	0.0000176
3114.6	0.0000131
3112.7	0.0000136
3110.8	0.0000170
3108.8	0.0000164
3106.9	0.0000092
3105.0	0.0000032
3103.1	0.0000037
3101.1	0.0000061
3099.2	0.0000060
3097.3	-0.0000022
3095.3	-0.0000164
3093.4	-0.0000211
3091.5	-0.0000136
3089.6	-0.0000070
3087.6	-0.0000060
3085.7	-0.0000087
3083.8	-0.0000123
3081.8	-0.0000111
3079.9	-0.0000096
3078.0	-0.0000131
3076.1	-0.0000135
3074.1	-0.0000136
3072.2	-0.0000198
3070.3	-0.0000201
3068.3	-0.0000115
3066.4	-0.0000064
3064.5	-0.0000083
3062.6	-0.0000104
3060.6	-0.0000103
3058.7	-0.0000104
3056.8	-0.0000109
3054.8	-0.0000115
3052.9	-0.0000122
3051.0	-0.0000131
3049.1	-0.0000135
3047.1	-0.0000116
3045.2	-0.0000094
3043.3	-0.0000101
3041.3	-0.0000147
3039.4	-0.0000211
3037.5	-0.0000206
3035.6	-0.0000135
3033.6	-0.0000111
3031.7	-0.0000146
3029.8	-0.0000155
3027.8	-0.0000157
3025.9	-0.0000222
3024.0	-0.0000310
3022.1	-0.0000344
3020.1	-0.0000370
3018.2	-0.0000446
3016.3	-0.0000494
3014.3	-0.0000436
3012.4	-0.0000335
3010.5	-0.0000273
3008.6	-0.0000248
3006.6	-0.0000205
3004.7	-0.0000134
3002.8	-0.0000097
3000.8	-0.0000086
2998.9	-0.0000061
2997.0	-0.0000080
2995.1	-0.0000139
2993.1	-0.0000179
2991.2	-0.0000219
2989.3	-0.0000242
2987.3	-0.0000245
2985.4	-0.0000247
2983.5	-0.0000199
2981.6	-0.0000122
2979.6	-0.0000121
2977.7	-0.0000184
2975.8	-0.0000193
2973.8	-0.0000103
2971.9	0.0000003
2970.0	0.0000073
2968.1	0.0000102
2966.1	0.0000063
2964.2	-0.0000038
2962.3	-0.0000128
2960.3	-0.0000143
2958.4	-0.0000099
2956.5	-0.0000077
2954.6	-0.0000098
2952.6	-0.0000108
2950.7	-0.0000078
2948.8	-0.0000032
2946.8	-0.0000045
2944.9	-0.0000142
2943.0	-0.0000211
2941.1	-0.0000166
2939.1	-0.0000063
2937.2	0.0000025
2935.3	0.0000078
2933.3	0.0000086
2931.4	0.0000023
2929.5	-0.0000103
2927.6	-0.0000179
2925.6	-0.0000126
2923.7	-0.0000036
2921.8	0.0000008
2919.8	0.0000021
2917.9	0.0000009
2916.0	-0.0000050
2914.1	-0.0000115
2912.1	-0.0000122
2910.2	-0.0000096
2908.3	-0.0000095
2906.3	-0.0000099
2904.4	-0.0000072
2902.5	-0.0000064
2900.6	-0.0000123
2898.6	-0.0000143
2896.7	-0.0000091
2894.8	-0.0000054
2892.8	-0.0000037
2890.9	-0.0000025
2889.0	-0.0000016
2887.1	0.0000015
2885.1	0.0000041
2883.2	0.0000006
2881.3	-0.0000046
2879.3	-0.0000028
2877.4	0.0000037
2875.5	0.0000059
2873.6	0.0000018
2871.6	-0.0000027
2869.7	-0.0000032
2867.8	0.0000018
2865.8	0.0000100
2863.9	0.0000167
2862.0	0.0000208
2860.1	0.0000220
2858.1	0.0000176
2856.2	0.0000126
2854.3	0.0000143
2852.3	0.0000160
2850.4	0.0000111
2848.5	0.0000061
2846.6	0.0000056
2844.6	0.0000063
2842.7	0.0000064
2840.8	0.0000080
2838.8	0.0000098
2836.9	0.0000077
2835.0	0.0000040
2833.1	0.0000052
2831.1	0.0000075
2829.2	0.0000048
2827.3	0.0000006
2825.3	-0.0000017
2823.4	-0.0000049
2821.5	-0.0000071
2819.6	-0.0000063
2817.6	-0.0000046
2815.7	-0.0000019
2813.8	0.0000036
2811.8	0.0000095
2809.9	0.0000104
2808.0	0.0000102
2806.1	0.0000139
2804.1	0.0000164
2802.2	0.0000141
2800.3	0.0000120
2798.3	0.0000131
2796.4	0.0000146
2794.5	0.0000119
2792.6	0.0000040
2790.6	-0.0000045
2788.7	-0.0000101
2786.8	-0.0000123
2784.8	-0.0000115
2782.9	-0.0000077
2781.0	-0.0000047
2779.1	-0.0000075
2777.1	-0.0000113
2775.2	-0.0000074
2773.3	-0.0000014
2771.3	-0.0000014
2769.4	-0.0000039
2767.5	-0.0000071
2765.6	-0.0000094
2763.6	-0.0000085
2761.7	-0.0000059
2759.8	-0.0000032
2757.8	-0.0000007
2755.9	-0.0000010
2754.0	-0.0000045
2752.1	-0.0000074
2750.1	-0.0000082
2748.2	-0.0000086
2746.3	-0.0000098
2744.3	-0.0000112
2742.4	-0.0000092
2740.5	-0.0000075
2738.6	-0.0000093
2736.6	-0.0000102
2734.7	-0.0000089
2732.8	-0.0000093
2730.8	-0.0000085
2728.9	-0.0000027
2727.0	0.0000014
2725.1	-0.0000030
2723.1	-0.0000091
2721.2	-0.0000082
2719.3	-0.0000053
2717.3	-0.0000043
2715.4	-0.0000022
2713.5	-0.0000019
2711.6	-0.0000024
2709.6	-0.0000015
2707.7	-0.0000021
2705.8	-0.0000037
2703.8	-0.0000066
2701.9	-0.0000125
2700.0	-0.0000185
2698.1	-0.0000216
2696.1	-0.0000231
2694.2	-0.0000246
2692.3	-0.0000236
2690.3	-0.0000203
2688.4	-0.0000161
2686.5	-0.0000112
2684.6	-0.0000092
2682.6	-0.0000124
2680.7	-0.0000138
2678.8	-0.0000073
2676.8	0.0000008
2674.9	0.0000041
2673.0	0.0000050
2671.1	0.0000056
2669.1	0.0000050
2667.2	0.0000013
2665.3	-0.0000047
2663.3	-0.0000058
2661.4	-0.0000025
2659.5	-0.0000031
2657.6	-0.0000065
2655.6	-0.0000041
2653.7	0.0000025
2651.8	0.0000055
2649.8	0.0000038
2647.9	-0.0000030
2646.0	-0.0000135
2644.1	-0.0000188
2642.1	-0.0000163
2640.2	-0.0000089
2638.3	-0.0000040
2636.3	-0.0000078
2634.4	-0.0000123
2632.5	-0.0000082
2630.6	-0.0000015
2628.6	0.0000013
2626.7	0.0000020
2624.8	0.0000039
2622.8	0.0000064
2620.9	0.0000065
2619.0	0.0000025
2617.1	-0.0000038
2615.1	-0.0000070
2613.2	-0.0000034
2611.3	0.0000012
2609.3	-0.0000011
2607.4	-0.0000084
2605.5	-0.0000118
2603.6	-0.0000129
2601.6	-0.0000173
2599.7	-0.0000194
2597.8	-0.0000128
2595.8	-0.0000025
2593.9	0.0000037
2592.0	0.0000046
2590.1	0.0000030
2588.1	0.0000018
2586.2	0.0000020
2584.3	0.0000013
2582.3	-0.0000049
2580.4	-0.0000123
2578.5	-0.0000099
2576.6	-0.0000014
2574.6	0.0000001
2572.7	-0.0000052
2570.8	-0.0000078
2568.8	-0.0000050
2566.9	0.0000018
2565.0	0.0000081
2563.1	0.0000052
2561.1	-0.0000052
2559.2	-0.0000105
2557.3	-0.0000070
2555.3	-0.0000016
2553.4	0.0000028
2551.5	0.0000070
2549.6	0.0000098
2547.6	0.0000095
2545.7	0.0000066
2543.8	0.0000034
2541.8	-0.0000003
2539.9	-0.0000034
2538.0	-0.0000008
2536.1	0.0000023
2534.1	-0.0000004
2532.2	-0.0000018
2530.3	0.0000019
2528.3	0.0000052
2526.4	0.0000082
2524.5	0.0000138
2522.6	0.0000179
2520.6	0.0000154
2518.7	0.0000080
2516.8	0.0000038
2514.8	0.0000047
2512.9	0.0000029
2511.0	-0.0000042
2509.1	-0.0000088
2507.1	-0.0000046
2505.2	0.0000034
2503.3	0.0000046
2501.3	-0.0000005
2499.4	-0.0000044
2497.5	-0.0000033
2495.6	-0.0000005
2493.6	0.0000007
2491.7	-0.0000003
2489.8	-0.0000043
2487.8	-0.0000063
2485.9	-0.0000008
2484.0	0.0000053
2482.1	0.0000025
2480.1	-0.0000046
2478.2	-0.0000049
2476.3	0.0000017
2474.3	0.0000069
2472.4	0.0000054
2470.5	0.0000017
2468.6	0.0000034
2466.6	0.0000064
2464.7	0.0000023
2462.8	-0.0000026
2460.8	0.0000021
2458.9	0.0000108
2457.0	0.0000140
2455.1	0.0000131
2453.1	0.0000130
2451.2	0.0000140
2449.3	0.0000134
2447.3	0.0000122
2445.4	0.0000105
2443.5	0.0000079
2441.6	0.0000062
2439.6	0.0000046
2437.7	0.0000012
2435.8	-0.0000009
2433.8	0.0000031
2431.9	0.0000081
2430.0	0.0000072
2428.1	0.0000032
2426.1	0.0000013
2424.2	0.0000042
2422.3	0.0000078
2420.3	0.0000066
2418.4	0.0000058
2416.5	0.0000100
2414.6	0.0000114
2412.6	0.0000065
2410.7	0.0000028
2408.8	0.0000027
2406.8	0.0000025
2404.9	0.0000026
2403.0	0.0000029
2401.1	0.0000033
2399.1	0.0000087
2397.2	0.0000156
2395.3	0.0000126
2393.3	0.0000036
2391.4	-0.0000023
2389.5	-0.0000063
2387.6	-0.0000067
2385.6	-0.0000031
2383.7	-0.0000004
2381.8	0.0000035
2379.8	0.0000100
2377.9	0.0000152
2376.0	0.0000189
2374.1	0.0000205
2372.1	0.0000145
2370.2	0.0000052
2368.3	0.0000031
2366.3	0.0000093
2364.4	0.0000186
2362.5	0.0000253
2360.6	0.0000246
2358.6	0.0000194
2356.7	0.0000156
2354.8	0.0000118
2352.8	0.0000040
2350.9	-0.0000058
2349.0	-0.0000107
2347.1	-0.0000060
2345.1	0.0000049
2343.2	0.0000190
2341.3	0.0000350
2339.3	0.0000455
2337.4	0.0000457
2335.5	0.0000447
2333.6	0.0000474
2331.6	0.0000451
2329.7	0.0000371
2327.8	0.0000319
2325.8	0.0000310
2323.9	0.0000318
2322.0	0.0000298
2320.1	0.0000231
2318.1	0.0000158
2316.2	0.0000094
2314.3	0.0000073
2312.3	0.0000098
2310.4	0.0000082
2308.5	0.0000025
2306.6	0.0000035
2304.6	0.0000141
2302.7	0.0000210
2300.8	0.0000174
2298.8	0.0000106
2296.9	0.0000053
2295.0	0.0000016
2293.1	0.0000027
2291.1	0.0000077
2289.2	0.0000088
2287.3	0.0000077
2285.3	0.0000117
2283.4	0.0000144
2281.5	0.0000065
2279.6	-0.0000020
2277.6	-0.0000012
2275.7	0.0000026
2273.8	0.0000016
2271.8	-0.0000022
2269.9	-0.0000013
2268.0	0.0000048
2266.1	0.0000068
2264.1	0.0000020
2262.2	-0.0000050
2260.3	-0.0000088
2258.3	-0.0000055
2256.4	0.0000040
2254.5	0.0000116
2252.6	0.0000108
2250.6	0.0000078
2248.7	0.0000077
2246.8	0.0000054
2244.8	0.0000038
2242.9	0.0000064
2241.0	0.0000089
2239.1	0.0000099
2237.1	0.0000120
2235.2	0.0000107
2233.3	0.0000054
2231.3	0.0000010
2229.4	-0.0000038
2227.5	-0.0000090
2225.6	-0.0000108
2223.6	-0.0000077
2221.7	-0.0000010
2219.8	0.0000018
2217.8	-0.0000029
2215.9	-0.0000077
2214.0	-0.0000076
2212.1	-0.0000075
2210.1	-0.0000093
2208.2	-0.0000095
2206.3	-0.0000054
2204.3	0.0000017
2202.4	0.0000038
2200.5	-0.0000015
2198.6	-0.0000041
2196.6	-0.0000002
2194.7	0.0000031
2192.8	0.0000038
2190.8	0.0000048
2188.9	0.0000061
2187.0	0.0000077
2185.1	0.0000091
2183.1	0.0000061
2181.2	-0.0000006
2179.3	-0.0000023
2177.3	0.0000042
2175.4	0.0000114
2173.5	0.0000120
2171.6	0.0000074
2169.6	0.0000034
2167.7	0.0000048
2165.8	0.0000072
2163.8	0.0000057
2161.9	0.0000043
2160.0	0.0000038
2158.1	0.0000016
2156.1	-0.0000009
2154.2	-0.0000024
2152.3	-0.0000019
2150.3	0.0000003
2148.4	0.0000032
2146.5	0.0000067
2144.6	0.0000065
2142.6	0.0000024
2140.7	-0.0000000
2138.8	-0.0000030
2136.8	-0.0000098
2134.9	-0.0000127
2133.0	-0.0000074
2131.1	0.0000004
2129.1	0.0000054
2127.2	0.0000092
2125.3	0.0000106
2123.3	0.0000064
2121.4	0.0000026
2119.5	0.0000058
2117.6	0.0000102
2115.6	0.0000097
2113.7	0.0000053
2111.8	0.0000006
2109.8	-0.0000012
2107.9	-0.0000008
2106.0	-0.0000006
2104.1	-0.0000022
2102.1	-0.0000079
2100.2	-0.0000181
2098.3	-0.0000317
2096.3	-0.0000509
2094.4	-0.0000836
2092.5	-0.0001434
2090.6	-0.0002390
2088.6	-0.0003467
2086.7	-0.0004043
2084.8	-0.0003751
2082.8	-0.0002944
2080.9	-0.0002178
2079.0	-0.0001688
2077.1	-0.0001427
2075.1	-0.0001271
2073.2	-0.0001148
2071.3	-0.0001053
2069.3	-0.0000960
2067.4	-0.0000852
2065.5	-0.0000738
2063.6	-0.0000637
2061.6	-0.0000547
2059.7	-0.0000425
2057.8	-0.0000289
2055.8	-0.0000183
2053.9	-0.0000089
2052.0	-0.0000001
2050.1	0.0000084
2048.1	0.0000213
2046.2	0.0000370
2044.3	0.0000475
2042.3	0.0000515
2040.4	0.0000553
2038.5	0.0000612
2036.6	0.0000632
2034.6	0.0000616
2032.7	0.0000618
2030.8	0.0000635
2028.8	0.0000655
2026.9	0.0000679
2025.0	0.0000687
2023.1	0.0000669
2021.1	0.0000609
2019.2	0.0000555
2017.3	0.0000554
2015.3	0.0000565
2013.4	0.0000563
2011.5	0.0000545
2009.6	0.0000487
2007.6	0.0000408
2005.7	0.0000373
2003.8	0.0000390
2001.8	0.0000402
1999.9	0.0000378
1998.0	0.0000307
1996.1	0.0000224
1994.1	0.0000220
1992.2	0.0000278
1990.3	0.0000295
1988.3	0.0000297
1986.4	0.0000342
1984.5	0.0000359
1982.6	0.0000315
1980.6	0.0000283
1978.7	0.0000272
1976.8	0.0000239
1974.8	0.0000223
1972.9	0.0000251
1971.0	0.0000269
1969.1	0.0000245
1967.1	0.0000213
1965.2	0.0000175
1963.3	0.0000124
1961.4	0.0000077
1959.4	0.0000056
1957.5	0.0000054
1955.6	0.0000065
1953.6	0.0000085
1951.7	0.0000097
1949.8	0.0000098
1947.9	0.0000091
1945.9	0.0000099
1944.0	0.0000126
1942.1	0.0000100
1940.1	0.0000009
1938.2	-0.0000036
1936.3	0.0000000
1934.4	0.0000057
1932.4	0.0000119
1930.5	0.0000151
1928.6	0.0000126
1926.6	0.0000102
1924.7	0.0000114
1922.8	0.0000124
1920.9	0.0000136
1918.9	0.0000170
1917.0	0.0000153
1915.1	0.0000072
1913.1	0.0000045
1911.2	0.0000095
1909.3	0.0000123
1907.4	0.0000091
1905.4	0.0000042
1903.5	-0.0000009
1901.6	-0.0000024
1899.6	0.0000015
1897.7	0.0000049
1895.8	0.0000040
1893.9	0.0000029
1891.9	0.0000057
1890.0	0.0000076
1888.1	0.0000051
1886.1	0.0000024
1884.2	0.0000014
1882.3	0.0000005
1880.4	-0.0000036
1878.4	-0.0000114
1876.5	-0.0000161
1874.6	-0.0000140
1872.6	-0.0000051
1870.7	0.0000103
1868.8	0.0000193
1866.9	0.0000112
1864.9	-0.0000002
1863.0	-0.0000033
1861.1	-0.0000029
1859.1	-0.0000029
1857.2	-0.0000046
1855.3	-0.0000060
1853.4	-0.0000041
1851.4	-0.0000038
1849.5	-0.0000076
1847.6	0.0000006
1845.6	0.0000249
1843.7	0.0000336
1841.8	0.0000145
1839.9	-0.0000010
1837.9	0.0000017
1836.0	0.0000072
1834.1	0.0000098
1832.1	0.0000181
1830.2	0.0000270
1828.3	0.0000258
1826.4	0.0000193
1824.4	0.0000150
1822.5	0.0000123
1820.6	0.0000115
1818.6	0.0000134
1816.7	0.0000175
1814.8	0.0000235
1812.9	0.0000285
1810.9	0.0000281
1809.0	0.0000239
1807.1	0.0000248
1805.1	0.0000300
1803.2	0.0000323
1801.3	0.0000317
1799.4	0.0000307
1797.4	0.0000308
1795.5	0.0000372
1793.6	0.0000431
1791.6	0.0000338
1789.7	0.0000180
1787.8	0.0000162
1785.9	0.0000246
1783.9	0.0000248
1782.0	0.0000161
1780.1	0.0000078
1778.1	0.0000031
1776.2	0.0000136
1774.3	0.0000473
1772.4	0.0000697
1770.4	0.0000502
1768.5	0.0000154
1766.6	-0.0000027
1764.6	0.0000002
1762.7	0.0000108
1760.8	0.0000094
1758.9	0.0000005
1756.9	-0.0000016
1755.0	0.0000061
1753.1	0.0000235
1751.1	0.0000345
1749.2	0.0000235
1747.3	0.0000100
1745.4	0.0000096
1743.4	0.0000120
1741.5	0.0000126
1739.6	0.0000132
1737.6	0.0000245
1735.7	0.0000562
1733.8	0.0000705
1731.9	0.0000430
1729.9	0.0000136
1728.0	0.0000044
1726.1	0.0000013
1724.1	-0.0000014
1722.2	0.0000050
1720.3	0.0000409
1718.4	0.0000950
1716.4	0.0001080
1714.5	0.0000673
1712.6	0.0000251
1710.6	0.0000131
1708.7	0.0000303
1706.8	0.0000680
1704.9	0.0001154
1702.9	0.0001733
1701.0	0.0002307
1699.1	0.0002638
1697.1	0.0002824
1695.2	0.0002937
1693.3	0.0002912
1691.4	0.0002972
1689.4	0.0003363
1687.5	0.0004324
1685.6	0.0005611
1683.6	0.0006259
1681.7	0.0006186
1679.8	0.0006177
1677.9	0.0006474
1675.9	0.0006747
1674.0	0.0006646
1672.1	0.0006295
1670.1	0.0005922
1668.2	0.0005411
1666.3	0.0004832
1664.4	0.0004400
1662.4	0.0004029
1660.5	0.0003645
1658.6	0.0003415
1656.6	0.0003701
1654.7	0.0004574
1652.8	0.0004984
1650.9	0.0004325
1648.9	0.0003786
1647.0	0.0003887
1645.1	0.0003867
1643.1	0.0003673
1641.2	0.0003764
1639.3	0.0004183
1637.4	0.0004802
1635.4	0.0005276
1633.5	0.0005223
1631.6	0.0004817
1629.6	0.0004373
1627.7	0.0003919
1625.8	0.0003455
1623.9	0.0002991
1621.9	0.0002512
1620.0	0.0002257
1618.1	0.0002313
1616.1	0.0002121
1614.2	0.0001492
1612.3	0.0001001
1610.4	0.0000791
1608.4	0.0000576
1606.5	0.0000338
1604.6	0.0000198
1602.6	0.0000149
1600.7	0.0000092
1598.8	0.0000038
1596.9	0.0000064
1594.9	0.0000133
1593.0	0.0000219
1591.1	0.0000391
1589.1	0.0000745
1587.2	0.0001233
1585.3	0.0001615
1583.4	0.0001693
1581.4	0.0001463
1579.5	0.0001275
1577.6	0.0001438
1575.6	0.0001471
1573.7	0.0001158
1571.8	0.0001049
1569.9	0.0001056
1567.9	0.0000765
1566.0	0.0000409
1564.1	0.0000268
1562.1	0.0000476
1560.2	0.0000973
1558.3	0.0001177
1556.4	0.0000886
1554.4	0.0000527
1552.5	0.0000252
1550.6	0.0000050
1548.6	0.0000036
1546.7	0.0000275
1544.8	0.0000719
1542.9	0.0001242
1540.9	0.0001529
1539.0	0.0001224
1537.1	0.0000656
1535.1	0.0000421
1533.2	0.0000353
1531.3	0.0000162
1529.4	0.0000046
1527.4	0.0000094
1525.5	0.0000200
1523.6	0.0000387
1521.6	0.0000524
1519.7	0.0000415
1517.8	0.0000204
1515.9	0.0000045
1513.9	-0.0000022
1512.0	0.0000107
1510.1	0.0000580
1508.1	0.0001349
1506.2	0.0001699
1504.3	0.0001197
1502.4	0.0000633
1500.4	0.0000592
1498.5	0.0000733
1496.6	0.0000751
1494.6	0.0000724
1492.7	0.0000820
1490.8	0.0001031
1488.9	0.0001232
1486.9	0.0001487
1485.0	0.0001946
1483.1	0.0002536
1481.1	0.0003072
1479.2	0.0003476
1477.3	0.0003704
1475.4	0.0003663
1473.4	0.0003379
1471.5	0.0002923
1469.6	0.0002468
1467.6	0.0002357
1465.7	0.0002456
1463.8	0.0002180
1461.9	0.0001551
1459.9	0.0001262
1458.0	0.0001374
1456.1	0.0001184
1454.1	0.0000617
1452.2	0.0000221
1450.3	0.0000130
1448.4	0.0000158
1446.4	0.0000135
1444.5	0.0000035
1442.6	0.0000017
1440.6	0.0000104
1438.7	0.0000345
1436.8	0.0000559
1434.9	-0.0000318
1432.9	-0.0002152
1431.0	-0.0002740
1429.1	-0.0001510
1427.1	-0.0000100
1425.2	0.0000679
1423.3	0.0001079
1421.4	0.0001401
1419.4	0.0001749
1417.5	0.0002144
1415.6	0.0002896
1413.6	0.0004141
1411.7	0.0005413
1409.8	0.0006154
1407.9	0.0006232
1405.9	0.0005834
1404.0	0.0005180
1402.1	0.0004454
1400.1	0.0003747
1398.2	0.0003084
1396.3	0.0002495
1394.4	0.0001929
1392.4	0.0001369
1390.5	0.0000960
1388.6	0.0000748
1386.6	0.0000583
1384.7	0.0000405
1382.8	0.0000279
1380.9	0.0000289
1378.9	0.0000536
1377.0	0.0001088
1375.1	0.0001879
1373.1	0.0002762
1371.2	0.0003573
1369.3	0.0004052
1367.4	0.0003975
1365.4	0.0003488
1363.5	0.0002943
1361.6	0.0002490
1359.6	0.0002101
1357.7	0.0001756
1355.8	0.0001421
1353.9	0.0001080
1351.9	0.0000817
1350.0	0.0000647
1348.1	0.0000510
1346.1	0.0000406
1344.2	0.0000354
1342.3	0.0000343
1340.4	0.0000315
1338.4	0.0000239
1336.5	0.0000184
1334.6	0.0000172
1332.6	0.0000108
1330.7	0.0000013
1328.8	0.0000002
1326.9	0.0000041
1324.9	0.0000029
1323.0	-0.0000023
1321.1	-0.0000028
1319.1	0.0000047
1317.2	0.0000114
1315.3	0.0000120
1313.4	0.0000150
1311.4	0.0000214
1309.5	0.0000230
1307.6	0.0000246
1305.6	0.0000325
1303.7	0.0000412
1301.8	0.0000438
1299.9	0.0000380
1297.9	0.0000328
1296.0	0.0000370
1294.1	0.0000407
1292.1	0.0000400
1290.2	0.0000452
1288.3	0.0000546
1286.4	0.0000587
1284.4	0.0000561
1282.5	0.0000514
1280.6	0.0000488
1278.6	0.0000413
1276.7	0.0000242
1274.8	0.0000111
1272.9	0.0000095
1270.9	0.0000115
1269.0	0.0000105
1267.1	0.0000035
1265.1	-0.0000008
1263.2	0.0000090
1261.3	0.0000243
1259.4	0.0000309
1257.4	0.0000292
1255.5	0.0000267
1253.6	0.0000289
1251.6	0.0000332
1249.7	0.0000340
1247.8	0.0000315
1245.9	0.0000258
1243.9	0.0000193
1242.0	0.0000233
1240.1	0.0000383
1238.1	0.0000506
1236.2	0.0000579
1234.3	0.0000640
1232.4	0.0000623
1230.4	0.0000507
1228.5	0.0000383
1226.6	0.0000283
1224.6	0.0000219
1222.7	0.0000258
1220.8	0.0000331
1218.9	0.0000265
1216.9	0.0000180
1215.0	0.0000269
1213.1	0.0000411
1211.1	0.0000473
1209.2	0.0000478
1207.3	0.0000487
1205.4	0.0000620
1203.4	0.0000922
1201.5	0.0001316
1199.6	0.0001705
1197.6	0.0001865
1195.7	0.0001688
1193.8	0.0001363
1191.9	0.0001016
1189.9	0.0000682
1188.0	0.0000475
1186.1	0.0000360
1184.1	0.0000207
1182.2	0.0000075
1180.3	0.0000132
1178.4	0.0000293
1176.4	0.0000313
1174.5	0.0000203
1172.6	0.0000101
1170.6	0.0000038
1168.7	0.0000028
1166.8	0.0000089
1164.9	0.0000191
1162.9	0.0000298
1161.0	0.0000358
1159.1	0.0000348
1157.1	0.0000359
1155.2	0.0000402
1153.3	0.0000338
1151.4	0.0000242
1149.4	0.0000312
1147.5	0.0000417
1145.6	0.0000336
1143.6	0.0000216
1141.7	0.0000269
1139.8	0.0000357
1137.9	0.0000285
1135.9	0.0000128
1134.0	0.0000020
1132.1	-0.0000022
1130.1	-0.0000004
1128.2	0.0000013
1126.3	-0.0000059
1124.4	-0.0000126
1122.4	-0.0000064
1120.5	0.0000046
1118.6	0.0000099
1116.6	0.0000194
1114.7	0.0000300
1112.8	0.0000209
1110.9	0.0000050
1108.9	0.0000085
1107.0	0.0000227
1105.1	0.0000273
1103.1	0.0000208
1101.2	0.0000143
1099.3	0.0000127
1097.4	0.0000110
1095.4	0.0000098
1093.5	0.0000230
1091.6	0.0000453
1089.6	0.0000532
1087.7	0.0000515
1085.8	0.0000628
1083.9	0.0000803
1081.9	0.0000742
1080.0	0.0000426
1078.1	0.0000154
1076.1	0.0000075
1074.2	0.0000117
1072.3	0.0000204
1070.4	0.0000256
1068.4	0.0000224
1066.5	0.0000172
1064.6	0.0000125
1062.6	0.0000051
1060.7	0.0000006
1058.8	0.0000029
1056.9	0.0000095
1054.9	0.0000187
1053.0	0.0000276
1051.1	0.0000318
1049.1	0.0000287
1047.2	0.0000295
1045.3	0.0000411
1043.4	0.0000459
1041.4	0.0000351
1039.5	0.0000250
1037.6	0.0000312
1035.6	0.0000526
1033.7	0.0000792
1031.8	0.0001034
1029.9	0.0001267
1027.9	0.0001599
1026.0	0.0001976
1024.1	0.0002159
1022.1	0.0002122
1020.2	0.0002077
1018.3	0.0002027
1016.4	0.0001842
1014.4	0.0001564
1012.5	0.0001244
1010.6	0.0000913
1008.6	0.0000645
1006.7	0.0000465
1004.8	0.0000379
1002.9	0.0000371
1000.9	0.0000343
999.0	0.0000264
997.1	0.0000253
995.1	0.0000333
993.2	0.0000387
991.3	0.0000386
989.4	0.0000364
987.4	0.0000346
985.5	0.0000348
983.6	0.0000418
981.6	0.0000591
979.7	0.0000728
977.8	0.0000670
975.9	0.0000531
973.9	0.0000515
972.0	0.0000576
970.1	0.0000518
968.1	0.0000401
966.2	0.0000395
964.3	0.0000410
962.4	0.0000368
960.4	0.0000383
958.5	0.0000440
956.6	0.0000444
954.6	0.0000378
952.7	0.0000292
950.8	0.0000300
948.9	0.0000420
946.9	0.0000491
945.0	0.0000449
943.1	0.0000440
941.1	0.0000523
939.2	0.0000589
937.3	0.0000563
935.4	0.0000502
933.4	0.0000519
931.5	0.0000579
929.6	0.0000501
927.6	0.0000227
925.7	-0.0000018
923.8	-0.0000033
921.9	0.0000067
919.9	0.0000088
918.0	0.0000003
916.1	-0.0000072
914.1	-0.0000018
912.2	0.0000135
910.3	0.0000223
908.4	0.0000209
906.4	0.0000282
904.5	0.0000492
902.6	0.0000623
900.6	0.0000520
898.7	0.0000323
896.8	0.0000288
894.9	0.0000423
892.9	0.0000562
891.0	0.0000792
889.1	0.0001415
887.1	0.0002127
885.2	0.0002157
883.3	0.0001457
881.4	0.0000561
879.4	-0.0000063
877.5	-0.0000048
875.6	0.0000394
873.6	0.0000575
871.7	0.0000363
869.8	0.0000223
867.9	0.0000317
865.9	0.0000303
864.0	0.0000072
862.1	-0.0000057
860.1	0.0000006
858.2	0.0000123
856.3	0.0000297
854.4	0.0000540
852.4	0.0000806
850.5	0.0000958
848.6	0.0000973
846.6	0.0000958
844.7	0.0000831
842.8	0.0000684
840.9	0.0000696
838.9	0.0000672
837.0	0.0000389
835.1	0.0000077
833.1	0.0000033
831.2	0.0000016
829.3	-0.0000058
827.4	0.0000074
825.4	0.0000283
823.5	0.0000339
821.6	0.0000221
819.6	0.0000076
817.7	0.0000191
815.8	0.0000485
813.9	0.0000449
811.9	0.0000110
810.0	0.0000084
808.1	0.0000553
806.1	0.0001217
804.2	0.0001664
802.3	0.0001691
800.4	0.0001648
798.4	0.0001929
796.5	0.0002474
794.6	0.0003280
792.6	0.0004387
790.7	0.0005159
788.8	0.0005444
786.9	0.0005912
784.9	0.0006324
783.0	0.0006194
781.1	0.0005926
779.1	0.0005653
777.2	0.0005048
775.3	0.0004402
773.4	0.0004132
771.4	0.0004017
769.5	0.0003697
767.6	0.0003242
765.6	0.0003109
763.7	0.0002966
761.8	0.0001979
759.9	0.0000660
757.9	-0.0000036
756.0	0.0000066
754.1	0.0000994
752.1	0.0002027
750.2	0.0002099
748.3	0.0001586
746.4	0.0001117
744.4	0.0000728
742.5	0.0000450
740.6	0.0000317
738.6	0.0000458
736.7	0.0000441
734.8	0.0000021
732.9	-0.0000130
730.9	0.0000151
729.0	0.0000319
727.1	0.0000151
725.1	-0.0000009
723.2	0.0000180
721.3	0.0000438
719.4	0.0000086
717.4	-0.0000276
715.5	0.0000092
713.6	0.0000126
711.6	-0.0000434
709.7	-0.0000392
707.8	0.0000186
705.9	0.0000406
703.9	0.0000389
702.0	0.0000426
700.1	0.0000667
698.1	0.0001329
696.2	0.0001709
694.3	0.0001025
692.4	0.0000075
690.4	0.0000242
688.5	0.0001207
686.6	0.0001862
684.6	0.0002338
682.7	0.0003233
680.8	0.0004192
678.9	0.0004522
676.9	0.0004039
675.0	0.0002814
673.1	0.0002149
671.1	0.0002786
669.2	0.0003035
667.3	0.0002203
665.4	0.0001913
663.4	0.0002713
661.5	0.0003331
659.6	0.0003274
657.6	0.0002527
655.7	0.0001665
653.8	0.0001836
651.9	0.0002457
649.9	0.0002414
648.0	0.0001912
646.1	0.0001708
644.1	0.0001676
642.2	0.0001737
640.3	0.0001271
638.4	-0.0001935
636.4	-0.0005268
634.5	-0.0003162
632.6	0.0002357
630.6	0.0005845
628.7	0.0006436
626.8	0.0004872
624.9	0.0002487
622.9	0.0001456
621.0	0.0001889
619.1	0.0003275
617.1	0.0005123
615.2	0.0005256
613.3	0.0002271
611.4	-0.0001473
609.4	-0.0002320
607.5	-0.0000191
605.6	0.0001684
603.6	0.0001749
601.7	0.0002202
599.8	0.0003423
597.9	0.0003441
595.9	0.0002951
594.0	0.0003219
592.1	0.0003566
590.1	0.0003000
588.2	0.0001824
586.3	0.0000505
584.4	-0.0000094
582.4	0.0000958
580.5	0.0001076
578.6	-0.0001809
576.6	-0.0004793
574.7	-0.0004811
572.8	-0.0003199
570.9	-0.0001994
568.9	-0.0000891
567.0	0.0000581
565.1	0.0002021
563.1	0.0002397
561.2	0.0002457
559.3	0.0002450
557.4	0.0001247
555.4	0.0001325
553.5	0.0003931
551.6	0.0005673
549.6	0.0005640
547.7	0.0006040
545.8	0.0006263
543.9	0.0005789
541.9	0.0005632
540.0	0.0006427
538.1	0.0009726
536.1	0.0015040
534.2	0.0019486
532.3	0.0018302
530.4	0.0010822
528.4	0.0001105
526.5	-0.0011737
524.6	-0.0026492
522.6	-0.0031732
520.7	-0.0027319
518.8	-0.0034803
516.9	-0.0039643
514.9	0.0000280
513.0	0.0078583
511.1	0.0161734
509.1	0.0204979
507.2	0.0166159
505.3	0.0079996
503.4	0.0016909
501.4	-0.0002754
499.5	0.0000277
497.6	0.0001338
495.6	-0.0001836
493.7	-0.0001314
491.8	0.0003757
489.9	0.0006942
487.9	0.0001990
486.0	-0.0005588
484.1	-0.0003493
482.1	0.0006526
480.2	0.0011215
478.3	0.0008253
476.4	0.0003433
474.4	0.0000930
472.5	0.0000624
470.6	-0.0000540
468.6	-0.0000888
466.7	0.0002520
464.8	0.0007821
462.9	0.0010417
460.9	0.0008351
459.0	0.0003359
457.1	0.0000588
455.1	0.0003858
453.2	0.0007145
451.3	0.0003394
449.4	-0.0004102
447.4	-0.0006252
445.5	-0.0001486
443.6	0.0002677
441.6	0.0002966
439.7	0.0001405
437.8	-0.0000528
435.9	0.0001413
433.9	0.0007619
432.0	0.0010138
430.1	0.0006144
428.1	0.0000072
426.2	-0.0002661
424.3	0.0000517
422.4	0.0004230
420.4	0.0001133
418.5	-0.0006022
416.6	-0.0006247
414.6	-0.0000681
412.7	0.0001012
410.8	0.0000587
408.9	0.0002774
406.9	0.0006530
405.0	0.0008241
403.1	0.0005923
401.1	0.0001637
399.2	0.0000796
397.3	0.0006004
395.4	0.0011099
393.4	0.0010931
391.5	0.0007511
389.6	0.0004558
387.6	0.0001359
385.7	-0.0003026
383.8	-0.0004103
381.9	-0.0000643
379.9	0.0001935
378.0	0.0000473
376.1	-0.0000988
374.1	-0.0000235
372.2	0.0002566
370.3	0.0005812
368.4	0.0003615
