3997.9	0.0000598
3996.0	0.0000538
3994.1	0.0000550
3992.1	0.0000618
3990.2	0.0000731
3988.3	0.0000760
3986.3	0.0000565
3984.4	0.0000358
3982.5	0.0000358
3980.6	0.0000411
3978.6	0.0000343
3976.7	0.0000191
3974.8	0.0000094
3972.8	0.0000117
3970.9	0.0000204
3969.0	0.0000290
3967.1	0.0000300
3965.1	0.0000230
3963.2	0.0000201
3961.3	0.0000270
3959.3	0.0000366
3957.4	0.0000444
3955.5	0.0000484
3953.6	0.0000401
3951.6	0.0000187
3949.7	-0.0000012
3947.8	-0.0000094
3945.8	-0.0000113
3943.9	-0.0000102
3942.0	-0.0000017
3940.1	0.0000089
3938.1	0.0000105
3936.2	0.0000034
3934.3	0.0000012
3932.3	0.0000073
3930.4	0.0000050
3928.5	-0.0000093
3926.6	-0.0000155
3924.6	-0.0000086
3922.7	-0.0000037
3920.8	0.0000028
3918.8	0.0000144
3916.9	0.0000143
3915.0	0.0000089
3913.1	0.0000133
3911.1	0.0000132
3909.2	0.0000057
3907.3	0.0000051
3905.3	0.0000041
3903.4	-0.0000011
3901.5	0.0000026
3899.6	0.0000056
3897.6	-0.0000026
3895.7	-0.0000067
3893.8	0.0000028
3891.8	0.0000188
3889.9	0.0000298
3888.0	0.0000326
3886.1	0.0000279
3884.1	0.0000224
3882.2	0.0000268
3880.3	0.0000248
3878.3	0.0000102
3876.4	0.0000090
3874.5	0.0000126
3872.6	-0.0000160
3870.6	-0.0000568
3868.7	-0.0000619
3866.8	-0.0000431
3864.8	-0.0000244
3862.9	0.0000004
3861.0	0.0000232
3859.1	0.0000361
3857.1	0.0000459
3855.2	0.0000544
3853.3	0.0000537
3851.3	0.0000431
3849.4	0.0000283
3847.5	0.0000218
3845.6	0.0000288
3843.6	0.0000264
3841.7	0.0000022
3839.8	-0.0000193
3837.8	-0.0000104
3835.9	0.0000270
3834.0	0.0000591
3832.1	0.0000587
3830.1	0.0000331
3828.2	0.0000150
3826.3	0.0000203
3824.3	0.0000277
3822.4	0.0000176
3820.5	0.0000064
3818.6	0.0000115
3816.6	0.0000143
3814.7	0.0000054
3812.8	0.0000074
3810.8	0.0000112
3808.9	-0.0000104
3807.0	-0.0000305
3805.1	-0.0000245
3803.1	-0.0000252
3801.2	-0.0000359
3799.3	-0.0000298
3797.3	-0.0000136
3795.4	0.0000029
3793.5	0.0000152
3791.6	0.0000175
3789.6	0.0000169
3787.7	0.0000204
3785.8	0.0000259
3783.8	0.0000249
3781.9	0.0000157
3780.0	0.0000102
3778.1	0.0000125
3776.1	0.0000133
3774.2	0.0000087
3772.3	0.0000014
3770.3	-0.0000087
3768.4	-0.0000172
3766.5	-0.0000110
3764.6	0.0000135
3762.6	0.0000369
3760.7	0.0000436
3758.8	0.0000398
3756.8	0.0000305
3754.9	0.0000243
3753.0	0.0000268
3751.1	0.0000333
3749.1	0.0000381
3747.2	0.0000206
3745.3	-0.0000129
3743.3	-0.0000217
3741.4	-0.0000137
3739.5	-0.0000247
3737.6	-0.0000396
3735.6	-0.0000182
3733.7	0.0000304
3731.8	0.0000518
3729.8	0.0000377
3727.9	0.0000332
3726.0	0.0000426
3724.1	0.0000326
3722.1	0.0000088
3720.2	-0.0000003
3718.3	0.0000056
3716.3	0.0000091
3714.4	0.0000080
3712.5	0.0000109
3710.6	0.0000122
3708.6	0.0000051
3706.7	-0.0000042
3704.8	-0.0000119
3702.8	-0.0000164
3700.9	-0.0000113
3699.0	-0.0000038
3697.1	-0.0000014
3695.1	0.0000012
3693.2	0.0000037
3691.3	0.0000307
3689.3	0.0000828
3687.4	0.0000867
3685.5	0.0000397
3683.6	0.0000115
3681.6	0.0000069
3679.7	-0.0000104
3677.8	-0.0000432
3675.8	-0.0000474
3673.9	0.0000084
3672.0	0.0000772
3670.1	0.0000851
3668.1	0.0000428
3666.2	0.0000182
3664.3	0.0000173
3662.3	0.0000133
3660.4	0.0000090
3658.5	0.0000151
3656.6	0.0000315
3654.6	0.0000460
3652.7	0.0000402
3650.8	0.0000043
3648.8	-0.0000246
3646.9	-0.0000125
3645.0	0.0000087
3643.1	0.0000198
3641.1	0.0000299
3639.2	0.0000298
3637.3	0.0000131
3635.3	-0.0000049
3633.4	-0.0000072
3631.5	-0.0000002
3629.6	-0.0000034
3627.6	-0.0000119
3625.7	-0.0000080
3623.8	0.0000072
3621.8	0.0000238
3619.9	0.0000295
3618.0	0.0000207
3616.1	0.0000174
3614.1	0.0000268
3612.2	0.0000433
3610.3	0.0000619
3608.3	0.0000579
3606.4	0.0000289
3604.5	0.0000112
3602.6	0.0000149
3600.6	0.0000187
3598.7	0.0000138
3596.8	0.0000078
3594.8	0.0000098
3592.9	0.0000140
3591.0	0.0000037
3589.1	-0.0000106
3587.1	-0.0000029
3585.2	0.0000137
3583.3	0.0000158
3581.3	0.0000126
3579.4	0.0000178
3577.5	0.0000245
3575.6	0.0000223
3573.6	0.0000193
3571.7	0.0000187
3569.8	0.0000088
3567.8	-0.0000030
3565.9	-0.0000005
3564.0	0.0000096
3562.1	0.0000151
3560.1	0.0000162
3558.2	0.0000167
3556.3	0.0000135
3554.3	0.0000088
3552.4	0.0000114
3550.5	0.0000218
3548.6	0.0000339
3546.6	0.0000403
3544.7	0.0000377
3542.8	0.0000306
3540.8	0.0000210
3538.9	0.0000115
3537.0	0.0000130
3535.1	0.0000288
3533.1	0.0000399
3531.2	0.0000301
3529.3	0.0000092
3527.3	0.0000031
3525.4	0.0000197
3523.5	0.0000411
3521.6	0.0000494
3519.6	0.0000456
3517.7	0.0000382
3515.8	0.0000287
3513.8	0.0000177
3511.9	0.0000118
3510.0	0.0000105
3508.1	0.0000076
3506.1	0.0000058
3504.2	0.0000053
3502.3	0.0000037
3500.3	0.0000053
3498.4	0.0000126
3496.5	0.0000193
3494.6	0.0000193
3492.6	0.0000147
3490.7	0.0000047
3488.8	-0.0000096
3486.8	-0.0000137
3484.9	-0.0000089
3483.0	-0.0000129
3481.1	-0.0000221
3479.1	-0.0000197
3477.2	-0.0000045
3475.3	0.0000065
3473.3	0.0000091
3471.4	0.0000193
3469.5	0.0000356
3467.6	0.0000362
3465.6	0.0000151
3463.7	-0.0000050
3461.8	-0.0000081
3459.8	-0.0000072
3457.9	-0.0000093
3456.0	-0.0000062
3454.1	0.0000012
3452.1	0.0000099
3450.2	0.0000159
3448.3	0.0000123
3446.3	0.0000030
3444.4	0.0000005
3442.5	0.0000101
3440.6	0.0000232
3438.6	0.0000290
3436.7	0.0000284
3434.8	0.0000231
3432.8	0.0000170
3430.9	0.0000168
3429.0	0.0000162
3427.1	0.0000099
3425.1	0.0000072
3423.2	0.0000126
3421.3	0.0000202
3419.3	0.0000227
3417.4	0.0000178
3415.5	0.0000156
3413.6	0.0000239
3411.6	0.0000350
3409.7	0.0000334
3407.8	0.0000170
3405.8	0.0000017
3403.9	-0.0000007
3402.0	0.0000081
3400.1	0.0000191
3398.1	0.0000187
3396.2	0.0000069
3394.3	-0.0000006
3392.3	0.0000022
3390.4	0.0000042
3388.5	-0.0000008
3386.6	-0.0000054
3384.6	0.0000005
3382.7	0.0000117
3380.8	0.0000139
3378.8	0.0000099
3376.9	0.0000077
3375.0	0.0000040
3373.1	0.0000046
3371.1	0.0000113
3369.2	0.0000143
3367.3	0.0000131
3365.3	0.0000122
3363.4	0.0000061
3361.5	-0.0000066
3359.6	-0.0000119
3357.6	-0.0000039
3355.7	0.0000047
3353.8	0.0000032
3351.8	-0.0000082
3349.9	-0.0000171
3348.0	-0.0000108
3346.1	0.0000011
3344.1	0.0000048
3342.2	0.0000063
3340.3	0.0000107
3338.3	0.0000098
3336.4	0.0000024
3334.5	-0.0000072
3332.6	-0.0000172
3330.6	-0.0000227
3328.7	-0.0000245
3326.8	-0.0000272
3324.8	-0.0000302
3322.9	-0.0000282
3321.0	-0.0000195
3319.1	-0.0000112
3317.1	-0.0000112
3315.2	-0.0000186
3313.3	-0.0000250
3311.3	-0.0000222
3309.4	-0.0000171
3307.5	-0.0000203
3305.6	-0.0000281
3303.6	-0.0000295
3301.7	-0.0000237
3299.8	-0.0000233
3297.8	-0.0000291
3295.9	-0.0000315
3294.0	-0.0000286
3292.1	-0.0000200
3290.1	-0.0000120
3288.2	-0.0000131
3286.3	-0.0000152
3284.3	-0.0000146
3282.4	-0.0000172
3280.5	-0.0000188
3278.6	-0.0000123
3276.6	-0.0000050
3274.7	-0.0000064
3272.8	-0.0000079
3270.8	-0.0000029
3268.9	-0.0000021
3267.0	-0.0000085
3265.1	-0.0000126
3263.1	-0.0000097
3261.2	-0.0000032
3259.3	-0.0000023
3257.3	-0.0000136
3255.4	-0.0000273
3253.5	-0.0000313
3251.6	-0.0000264
3249.6	-0.0000176
3247.7	-0.0000080
3245.8	-0.0000035
3243.8	-0.0000108
3241.9	-0.0000256
3240.0	-0.0000301
3238.1	-0.0000171
3236.1	-0.0000011
3234.2	0.0000035
3232.3	-0.0000007
3230.3	-0.0000041
3228.4	-0.0000016
3226.5	0.0000005
3224.6	-0.0000073
3222.6	-0.0000133
3220.7	-0.0000057
3218.8	0.0000020
3216.8	-0.0000019
3214.9	-0.0000050
3213.0	0.0000041
3211.1	0.0000114
3209.1	0.0000045
3207.2	-0.0000059
3205.3	-0.0000049
3203.3	0.0000034
3201.4	0.0000026
3199.5	-0.0000060
3197.6	-0.0000076
3195.6	-0.0000005
3193.7	0.0000070
3191.8	0.0000107
3189.8	0.0000100
3187.9	0.0000092
3186.0	0.0000133
3184.1	0.0000181
3182.1	0.0000162
3180.2	0.0000108
3178.3	0.0000116
3176.3	0.0000169
3174.4	0.0000175
3172.5	0.0000101
3170.6	0.0000005
3168.6	-0.0000006
3166.7	0.0000072
3164.8	0.0000170
3162.8	0.0000224
3160.9	0.0000205
3159.0	0.0000178
3157.1	0.0000191
3155.1	0.0000181
3153.2	0.0000145
3151.3	0.0000143
3149.3	0.0000179
3147.4	0.0000219
3145.5	0.0000231
3143.6	0.0000213
3141.6	0.0000171
3139.7	0.0000099
3137.8	0.0000029
3135.8	0.0000041
3133.9	0.0000118
3132.0	0.0000136
3130.1	0.0000070
3128.1	0.0000001
3126.2	-0.0000029
3124.3	-0.0000051
3122.3	-0.0000053
3120.4	0.0000019
3118.5	0.0000099
3116.6	0.0000080
3114.6	0.0000003
3112.7	-0.0000027
3110.8	-0.0000013
3108.8	-0.0000026
3106.9	-0.0000074
3105.0	-0.0000090
3103.1	-0.0000040
3101.1	0.0000036
3099.2	0.0000062
3097.3	-0.0000041
3095.3	-0.0000147
3093.4	-0.0000076
3091.5	0.0000051
3089.6	0.0000062
3087.6	-0.0000001
3085.7	-0.0000018
3083.8	0.0000033
3081.8	0.0000065
3079.9	0.0000024
3078.0	-0.0000032
3076.1	0.0000025
3074.1	0.0000157
3072.2	0.0000171
3070.3	0.0000091
3068.3	0.0000078
3066.4	0.0000156
3064.5	0.0000245
3062.6	0.0000280
3060.6	0.0000215
3058.7	0.0000105
3056.8	0.0000107
3054.8	0.0000209
3052.9	0.0000253
3051.0	0.0000200
3049.1	0.0000179
3047.1	0.0000245
3045.2	0.0000297
3043.3	0.0000282
3041.3	0.0000211
3039.4	0.0000114
3037.5	0.0000102
3035.6	0.0000191
3033.6	0.0000234
3031.7	0.0000175
3029.8	0.0000118
3027.8	0.0000100
3025.9	0.0000063
3024.0	0.0000023
3022.1	0.0000001
3020.1	-0.0000164
3018.2	-0.0000496
3016.3	-0.0000652
3014.3	-0.0000442
3012.4	-0.0000080
3010.5	0.0000180
3008.6	0.0000258
3006.6	0.0000249
3004.7	0.0000253
3002.8	0.0000228
3000.8	0.0000150
2998.9	0.0000099
2997.0	0.0000104
2995.1	0.0000119
2993.1	0.0000093
2991.2	-0.0000005
2989.3	-0.0000055
2987.3	0.0000019
2985.4	0.0000070
2983.5	0.0000028
2981.6	-0.0000031
2979.6	-0.0000044
2977.7	-0.0000015
2975.8	0.0000010
2973.8	0.0000049
2971.9	0.0000095
2970.0	0.0000080
2968.1	0.0000041
2966.1	0.0000018
2964.2	-0.0000056
2962.3	-0.0000145
2960.3	-0.0000127
2958.4	-0.0000021
2956.5	0.0000067
2954.6	0.0000106
2952.6	0.0000096
2950.7	0.0000028
2948.8	-0.0000028
2946.8	-0.0000014
2944.9	0.0000001
2943.0	-0.0000001
2941.1	0.0000041
2939.1	0.0000088
2937.2	0.0000136
2935.3	0.0000204
2933.3	0.0000225
2931.4	0.0000151
2929.5	0.0000045
2927.6	-0.0000003
2925.6	0.0000026
2923.7	0.0000093
2921.8	0.0000185
2919.8	0.0000248
2917.9	0.0000234
2916.0	0.0000156
2914.1	0.0000068
2912.1	0.0000037
2910.2	0.0000034
2908.3	0.0000010
2906.3	0.0000006
2904.4	0.0000047
2902.5	0.0000093
2900.6	0.0000088
2898.6	0.0000027
2896.7	-0.0000042
2894.8	-0.0000048
2892.8	0.0000042
2890.9	0.0000148
2889.0	0.0000190
2887.1	0.0000197
2885.1	0.0000195
2883.2	0.0000152
2881.3	0.0000073
2879.3	0.0000016
2877.4	-0.0000012
2875.5	-0.0000035
2873.6	-0.0000046
2871.6	-0.0000009
2869.7	0.0000048
2867.8	0.0000100
2865.8	0.0000143
2863.9	0.0000151
2862.0	0.0000147
2860.1	0.0000164
2858.1	0.0000161
2856.2	0.0000127
2854.3	0.0000111
2852.3	0.0000103
2850.4	0.0000076
2848.5	0.0000037
2846.6	0.0000003
2844.6	0.0000028
2842.7	0.0000103
2840.8	0.0000157
2838.8	0.0000167
2836.9	0.0000134
2835.0	0.0000081
2833.1	0.0000064
2831.1	0.0000073
2829.2	0.0000049
2827.3	-0.0000006
2825.3	-0.0000042
2823.4	-0.0000056
2821.5	-0.0000062
2819.6	-0.0000050
2817.6	-0.0000018
2815.7	0.0000015
2813.8	0.0000014
2811.8	-0.0000017
2809.9	-0.0000030
2808.0	0.0000016
2806.1	0.0000100
2804.1	0.0000137
2802.2	0.0000094
2800.3	0.0000036
2798.3	0.0000041
2796.4	0.0000099
2794.5	0.0000146
2792.6	0.0000152
2790.6	0.0000126
2788.7	0.0000077
2786.8	0.0000035
2784.8	0.0000008
2782.9	-0.0000014
2781.0	-0.0000002
2779.1	0.0000044
2777.1	0.0000068
2775.2	0.0000066
2773.3	0.0000056
2771.3	0.0000042
2769.4	0.0000028
2767.5	-0.0000002
2765.6	-0.0000025
2763.6	0.0000029
2761.7	0.0000134
2759.8	0.0000178
2757.8	0.0000138
2755.9	0.0000061
2754.0	-0.0000028
2752.1	-0.0000062
2750.1	-0.0000027
2748.2	0.0000020
2746.3	0.0000037
2744.3	0.0000009
2742.4	-0.0000016
2740.5	-0.0000006
2738.6	-0.0000029
2736.6	-0.0000085
2734.7	-0.0000089
2732.8	-0.0000056
2730.8	-0.0000040
2728.9	-0.0000021
2727.0	0.0000014
2725.1	0.0000017
2723.1	-0.0000046
2721.2	-0.0000086
2719.3	-0.0000067
2717.3	-0.0000047
2715.4	-0.0000014
2713.5	0.0000039
2711.6	0.0000074
2709.6	0.0000081
2707.7	0.0000038
2705.8	-0.0000050
2703.8	-0.0000119
2701.9	-0.0000128
2700.0	-0.0000108
2698.1	-0.0000113
2696.1	-0.0000168
2694.2	-0.0000236
2692.3	-0.0000246
2690.3	-0.0000190
2688.4	-0.0000130
2686.5	-0.0000105
2684.6	-0.0000110
2682.6	-0.0000147
2680.7	-0.0000170
2678.8	-0.0000115
2676.8	-0.0000018
2674.9	0.0000045
2673.0	0.0000090
2671.1	0.0000109
2669.1	0.0000078
2667.2	0.0000021
2665.3	-0.0000035
2663.3	-0.0000039
2661.4	0.0000009
2659.5	0.0000029
2657.6	0.0000007
2655.6	0.0000010
2653.7	0.0000056
2651.8	0.0000096
2649.8	0.0000071
2647.9	-0.0000008
2646.0	-0.0000057
2644.1	-0.0000056
2642.1	-0.0000073
2640.2	-0.0000078
2638.3	-0.0000036
2636.3	-0.0000002
2634.4	-0.0000033
2632.5	-0.0000088
2630.6	-0.0000072
2628.6	-0.0000008
2626.7	-0.0000000
2624.8	-0.0000051
2622.8	-0.0000059
2620.9	-0.0000024
2619.0	-0.0000033
2617.1	-0.0000078
2615.1	-0.0000080
2613.2	-0.0000061
2611.3	-0.0000090
2609.3	-0.0000133
2607.4	-0.0000127
2605.5	-0.0000085
2603.6	-0.0000073
2601.6	-0.0000129
2599.7	-0.0000184
2597.8	-0.0000167
2595.8	-0.0000108
2593.9	-0.0000039
2592.0	0.0000028
2590.1	0.0000065
2588.1	0.0000053
2586.2	0.0000009
2584.3	-0.0000032
2582.3	-0.0000050
2580.4	-0.0000047
2578.5	-0.0000018
2576.6	0.0000022
2574.6	0.0000039
2572.7	0.0000016
2570.8	-0.0000015
2568.8	-0.0000022
2566.9	-0.0000024
2565.0	-0.0000053
2563.1	-0.0000104
2561.1	-0.0000135
2559.2	-0.0000129
2557.3	-0.0000111
2555.3	-0.0000065
2553.4	-0.0000016
2551.5	-0.0000029
2549.6	-0.0000066
2547.6	-0.0000056
2545.7	-0.0000006
2543.8	0.0000015
2541.8	-0.0000030
2539.9	-0.0000068
2538.0	-0.0000043
2536.1	-0.0000045
2534.1	-0.0000095
2532.2	-0.0000099
2530.3	-0.0000041
2528.3	0.0000016
2526.4	0.0000022
2524.5	-0.0000014
2522.6	-0.0000048
2520.6	-0.0000077
2518.7	-0.0000099
2516.8	-0.0000078
2514.8	-0.0000036
2512.9	-0.0000027
2511.0	-0.0000041
2509.1	-0.0000059
2507.1	-0.0000065
2505.2	-0.0000056
2503.3	-0.0000043
2501.3	-0.0000056
2499.4	-0.0000111
2497.5	-0.0000146
2495.6	-0.0000138
2493.6	-0.0000116
2491.7	-0.0000070
2489.8	-0.0000027
2487.8	-0.0000041
2485.9	-0.0000083
2484.0	-0.0000086
2482.1	-0.0000078
2480.1	-0.0000077
2478.2	-0.0000054
2476.3	-0.0000015
2474.3	0.0000008
2472.4	-0.0000019
2470.5	-0.0000040
2468.6	-0.0000002
2466.6	0.0000004
2464.7	-0.0000066
2462.8	-0.0000090
2460.8	-0.0000019
2458.9	0.0000033
2457.0	0.0000030
2455.1	0.0000041
2453.1	0.0000051
2451.2	0.0000019
2449.3	-0.0000006
2447.3	0.0000016
2445.4	0.0000027
2443.5	-0.0000012
2441.6	-0.0000061
2439.6	-0.0000077
2437.7	-0.0000047
2435.8	0.0000005
2433.8	0.0000057
2431.9	0.0000067
2430.0	0.0000004
2428.1	-0.0000065
2426.1	-0.0000067
2424.2	-0.0000018
2422.3	0.0000034
2420.3	0.0000055
2418.4	0.0000018
2416.5	-0.0000021
2414.6	-0.0000005
2412.6	-0.0000003
2410.7	-0.0000030
2408.8	-0.0000039
2406.8	-0.0000037
2404.9	-0.0000039
2403.0	-0.0000060
2401.1	-0.0000075
2399.1	-0.0000053
2397.2	-0.0000034
2395.3	-0.0000023
2393.3	0.0000031
2391.4	0.0000091
2389.5	0.0000087
2387.6	0.0000057
2385.6	0.0000042
2383.7	0.0000004
2381.8	-0.0000060
2379.8	-0.0000094
2377.9	-0.0000109
2376.0	-0.0000189
2374.1	-0.0000369
2372.1	-0.0000612
2370.2	-0.0000852
2368.3	-0.0001042
2366.3	-0.0001169
2364.4	-0.0001273
2362.5	-0.0001375
2360.6	-0.0001408
2358.6	-0.0001305
2356.7	-0.0001089
2354.8	-0.0000864
2352.8	-0.0000691
2350.9	-0.0000554
2349.0	-0.0000488
2347.1	-0.0000559
2345.1	-0.0000748
2343.2	-0.0000983
2341.3	-0.0001175
2339.3	-0.0001243
2337.4	-0.0001140
2335.5	-0.0000890
2333.6	-0.0000661
2331.6	-0.0000627
2329.7	-0.0000686
2327.8	-0.0000628
2325.8	-0.0000485
2323.9	-0.0000381
2322.0	-0.0000327
2320.1	-0.0000293
2318.1	-0.0000245
2316.2	-0.0000173
2314.3	-0.0000113
2312.3	-0.0000075
2310.4	-0.0000064
2308.5	-0.0000059
2306.6	-0.0000004
2304.6	0.0000114
2302.7	0.0000221
2300.8	0.0000217
2298.8	0.0000135
2296.9	0.0000109
2295.0	0.0000150
2293.1	0.0000196
2291.1	0.0000227
2289.2	0.0000232
2287.3	0.0000220
2285.3	0.0000228
2283.4	0.0000228
2281.5	0.0000196
2279.6	0.0000158
2277.6	0.0000140
2275.7	0.0000156
2273.8	0.0000160
2271.8	0.0000126
2269.9	0.0000131
2268.0	0.0000185
2266.1	0.0000189
2264.1	0.0000101
2262.2	0.0000010
2260.3	0.0000033
2258.3	0.0000158
2256.4	0.0000275
2254.5	0.0000309
2252.6	0.0000276
2250.6	0.0000248
2248.7	0.0000254
2246.8	0.0000229
2244.8	0.0000160
2242.9	0.0000104
2241.0	0.0000107
2239.1	0.0000171
2237.1	0.0000259
2235.2	0.0000288
2233.3	0.0000246
2231.3	0.0000194
2229.4	0.0000135
2227.5	0.0000073
2225.6	0.0000077
2223.6	0.0000165
2221.7	0.0000234
2219.8	0.0000198
2217.8	0.0000126
2215.9	0.0000107
2214.0	0.0000105
2212.1	0.0000084
2210.1	0.0000089
2208.2	0.0000138
2206.3	0.0000198
2204.3	0.0000241
2202.4	0.0000245
2200.5	0.0000219
2198.6	0.0000209
2196.6	0.0000239
2194.7	0.0000270
2192.8	0.0000265
2190.8	0.0000237
2188.9	0.0000216
2187.0	0.0000206
2185.1	0.0000182
2183.1	0.0000140
2181.2	0.0000111
2179.3	0.0000112
2177.3	0.0000138
2175.4	0.0000163
2173.5	0.0000161
2171.6	0.0000164
2169.6	0.0000192
2167.7	0.0000217
2165.8	0.0000206
2163.8	0.0000164
2161.9	0.0000132
2160.0	0.0000095
2158.1	0.0000019
2156.1	-0.0000012
2154.2	0.0000091
2152.3	0.0000215
2150.3	0.0000215
2148.4	0.0000165
2146.5	0.0000190
2144.6	0.0000223
2142.6	0.0000176
2140.7	0.0000110
2138.8	0.0000068
2136.8	0.0000049
2134.9	0.0000063
2133.0	0.0000066
2131.1	0.0000037
2129.1	0.0000040
2127.2	0.0000096
2125.3	0.0000129
2123.3	0.0000125
2121.4	0.0000131
2119.5	0.0000160
2117.6	0.0000198
2115.6	0.0000222
2113.7	0.0000202
2111.8	0.0000156
2109.8	0.0000099
2107.9	0.0000027
2106.0	-0.0000018
2104.1	0.0000014
2102.1	0.0000060
2100.2	0.0000010
2098.3	-0.0000146
2096.3	-0.0000347
2094.4	-0.0000619
2092.5	-0.0001110
2090.6	-0.0001976
2088.6	-0.0003033
2086.7	-0.0003627
2084.8	-0.0003328
2082.8	-0.0002459
2080.9	-0.0001552
2079.0	-0.0000816
2077.1	-0.0000169
2075.1	0.0000487
2073.2	0.0001116
2071.3	0.0001627
2069.3	0.0001980
2067.4	0.0002168
2065.5	0.0002209
2063.6	0.0002129
2061.6	0.0001964
2059.7	0.0001779
2057.8	0.0001608
2055.8	0.0001455
2053.9	0.0001338
2052.0	0.0001249
2050.1	0.0001146
2048.1	0.0001002
2046.2	0.0000829
2044.3	0.0000660
2042.3	0.0000503
2040.4	0.0000383
2038.5	0.0000330
2036.6	0.0000303
2034.6	0.0000276
2032.7	0.0000256
2030.8	0.0000222
2028.8	0.0000203
2026.9	0.0000227
2025.0	0.0000239
2023.1	0.0000227
2021.1	0.0000196
2019.2	0.0000139
2017.3	0.0000107
2015.3	0.0000134
2013.4	0.0000203
2011.5	0.0000269
2009.6	0.0000280
2007.6	0.0000252
2005.7	0.0000234
2003.8	0.0000209
2001.8	0.0000154
1999.9	0.0000116
1998.0	0.0000102
1996.1	0.0000092
1994.1	0.0000113
1992.2	0.0000144
1990.3	0.0000142
1988.3	0.0000143
1986.4	0.0000178
1984.5	0.0000188
1982.6	0.0000142
1980.6	0.0000095
1978.7	0.0000077
1976.8	0.0000061
1974.8	0.0000058
1972.9	0.0000091
1971.0	0.0000137
1969.1	0.0000169
1967.1	0.0000184
1965.2	0.0000151
1963.3	0.0000056
1961.4	-0.0000037
1959.4	-0.0000048
1957.5	0.0000018
1955.6	0.0000085
1953.6	0.0000095
1951.7	0.0000064
1949.8	0.0000051
1947.9	0.0000064
1945.9	0.0000063
1944.0	0.0000053
1942.1	0.0000057
1940.1	0.0000056
1938.2	0.0000045
1936.3	0.0000024
1934.4	0.0000004
1932.4	0.0000024
1930.5	0.0000065
1928.6	0.0000091
1926.6	0.0000108
1924.7	0.0000118
1922.8	0.0000148
1920.9	0.0000239
1918.9	0.0000324
1917.0	0.0000317
1915.1	0.0000249
1913.1	0.0000205
1911.2	0.0000209
1909.3	0.0000232
1907.4	0.0000234
1905.4	0.0000252
1903.5	0.0000356
1901.6	0.0000524
1899.6	0.0000690
1897.7	0.0000800
1895.8	0.0000820
1893.9	0.0000801
1891.9	0.0000811
1890.0	0.0000818
1888.1	0.0000820
1886.1	0.0000857
1884.2	0.0000902
1882.3	0.0000938
1880.4	0.0000961
1878.4	0.0000959
1876.5	0.0000954
1874.6	0.0000972
1872.6	0.0001025
1870.7	0.0001089
1868.8	0.0001038
1866.9	0.0000856
1864.9	0.0000735
1863.0	0.0000700
1861.1	0.0000654
1859.1	0.0000609
1857.2	0.0000565
1855.3	0.0000513
1853.4	0.0000477
1851.4	0.0000424
1849.5	0.0000331
1847.6	0.0000335
1845.6	0.0000504
1843.7	0.0000552
1841.8	0.0000353
1839.9	0.0000204
1837.9	0.0000237
1836.0	0.0000296
1834.1	0.0000310
1832.1	0.0000302
1830.2	0.0000263
1828.3	0.0000218
1826.4	0.0000201
1824.4	0.0000198
1822.5	0.0000185
1820.6	0.0000173
1818.6	0.0000171
1816.7	0.0000193
1814.8	0.0000241
1812.9	0.0000261
1810.9	0.0000258
1809.0	0.0000287
1807.1	0.0000329
1805.1	0.0000305
1803.2	0.0000212
1801.3	0.0000154
1799.4	0.0000172
1797.4	0.0000184
1795.5	0.0000123
1793.6	-0.0000008
1791.6	-0.0000104
1789.7	-0.0000035
1787.8	0.0000127
1785.9	0.0000221
1783.9	0.0000232
1782.0	0.0000234
1780.1	0.0000205
1778.1	0.0000138
1776.2	0.0000225
1774.3	0.0000536
1772.4	0.0000640
1770.4	0.0000256
1768.5	-0.0000145
1766.6	-0.0000145
1764.6	0.0000030
1762.7	0.0000097
1760.8	0.0000068
1758.9	-0.0000003
1756.9	-0.0000042
1755.0	0.0000056
1753.1	0.0000192
1751.1	0.0000147
1749.2	-0.0000039
1747.3	-0.0000103
1745.4	-0.0000031
1743.4	-0.0000022
1741.5	-0.0000092
1739.6	-0.0000091
1737.6	0.0000028
1735.7	0.0000097
1733.8	0.0000023
1731.9	-0.0000028
1729.9	0.0000016
1728.0	0.0000053
1726.1	0.0000049
1724.1	0.0000058
1722.2	0.0000123
1720.3	0.0000383
1718.4	0.0000835
1716.4	0.0000980
1714.5	0.0000667
1712.6	0.0000398
1710.6	0.0000340
1708.7	0.0000346
1706.8	0.0000416
1704.9	0.0000447
1702.9	0.0000190
1701.0	-0.0000237
1699.1	-0.0000538
1697.1	-0.0000679
1695.2	-0.0000560
1693.3	-0.0000279
1691.4	-0.0000201
1689.4	-0.0000183
1687.5	0.0000230
1685.6	0.0000805
1683.6	0.0000725
1681.7	0.0000090
1679.8	-0.0000312
1677.9	-0.0000302
1675.9	-0.0000155
1674.0	-0.0000144
1672.1	-0.0000233
1670.1	-0.0000228
1668.2	-0.0000197
1666.3	-0.0000239
1664.4	-0.0000289
1662.4	-0.0000338
1660.5	-0.0000386
1658.6	-0.0000387
1656.6	-0.0000117
1654.7	0.0000703
1652.8	0.0001365
1650.9	0.0001034
1648.9	0.0000551
1647.0	0.0000539
1645.1	0.0000367
1643.1	-0.0000044
1641.2	-0.0000255
1639.3	-0.0000363
1637.4	-0.0000551
1635.4	-0.0000624
1633.5	-0.0000505
1631.6	-0.0000414
1629.6	-0.0000434
1627.7	-0.0000469
1625.8	-0.0000521
1623.9	-0.0000587
1621.9	-0.0000535
1620.0	-0.0000223
1618.1	0.0000270
1616.1	0.0000442
1614.2	0.0000099
1612.3	-0.0000233
1610.4	-0.0000320
1608.4	-0.0000360
1606.5	-0.0000364
1604.6	-0.0000298
1602.6	-0.0000291
1600.7	-0.0000386
1598.8	-0.0000430
1596.9	-0.0000361
1594.9	-0.0000284
1593.0	-0.0000231
1591.1	-0.0000173
1589.1	-0.0000141
1587.2	-0.0000177
1585.3	-0.0000248
1583.4	-0.0000269
1581.4	-0.0000218
1579.5	0.0000002
1577.6	0.0000431
1575.6	0.0000568
1573.7	0.0000191
1571.8	-0.0000148
1569.9	-0.0000228
1567.9	-0.0000229
1566.0	-0.0000156
1564.1	-0.0000205
1562.1	-0.0000639
1560.2	-0.0000989
1558.3	-0.0000708
1556.4	-0.0000241
1554.4	-0.0000100
1552.5	-0.0000168
1550.6	-0.0000259
1548.6	-0.0000261
1546.7	-0.0000115
1544.8	0.0000133
1542.9	0.0000344
1540.9	0.0000199
1539.0	-0.0000242
1537.1	-0.0000349
1535.1	-0.0000048
1533.2	0.0000078
1531.3	-0.0000109
1529.4	-0.0000325
1527.4	-0.0000494
1525.5	-0.0000651
1523.6	-0.0000775
1521.6	-0.0000819
1519.7	-0.0000739
1517.8	-0.0000683
1515.9	-0.0000791
1513.9	-0.0000925
1512.0	-0.0000885
1510.1	-0.0000511
1508.1	0.0000138
1506.2	0.0000506
1504.3	0.0000195
1502.4	-0.0000280
1500.4	-0.0000453
1498.5	-0.0000602
1496.6	-0.0000776
1494.6	-0.0000668
1492.7	-0.0000428
1490.8	-0.0000375
1488.9	-0.0000471
1486.9	-0.0000513
1485.0	-0.0000449
1483.1	-0.0000361
1481.1	-0.0000303
1479.2	-0.0000260
1477.3	-0.0000308
1475.4	-0.0000551
1473.4	-0.0000745
1471.5	-0.0000664
1469.6	-0.0000523
1467.6	-0.0000399
1465.7	-0.0000228
1463.8	-0.0000165
1461.9	-0.0000188
1459.9	-0.0000102
1458.0	-0.0000021
1456.1	-0.0000173
1454.1	-0.0000433
1452.2	-0.0000522
1450.3	-0.0000430
1448.4	-0.0000338
1446.4	-0.0000350
1444.5	-0.0000342
1442.6	-0.0000231
1440.6	-0.0000261
1438.7	-0.0000350
1436.8	-0.0000473
1434.9	-0.0002042
1432.9	-0.0004971
1431.0	-0.0005867
1429.1	-0.0003662
1427.1	-0.0001254
1425.2	-0.0000264
1423.3	0.0000006
1421.4	0.0000132
1419.4	0.0000110
1417.5	-0.0000040
1415.6	-0.0000154
1413.6	-0.0000222
1411.7	-0.0000296
1409.8	-0.0000321
1407.9	-0.0000263
1405.9	-0.0000204
1404.0	-0.0000203
1402.1	-0.0000173
1400.1	-0.0000064
1398.2	0.0000025
1396.3	0.0000062
1394.4	0.0000062
1392.4	-0.0000006
1390.5	-0.0000149
1388.6	-0.0000305
1386.6	-0.0000361
1384.7	-0.0000302
1382.8	-0.0000237
1380.9	-0.0000189
1378.9	-0.0000130
1377.0	-0.0000094
1375.1	-0.0000104
1373.1	-0.0000100
1371.2	-0.0000022
1369.3	0.0000055
1367.4	0.0000046
1365.4	0.0000005
1363.5	0.0000030
1361.6	0.0000129
1359.6	0.0000199
1357.7	0.0000191
1355.8	0.0000151
1353.9	0.0000110
1351.9	0.0000098
1350.0	0.0000132
1348.1	0.0000160
1346.1	0.0000125
1344.2	0.0000069
1342.3	0.0000074
1340.4	0.0000136
1338.4	0.0000216
1336.5	0.0000284
1334.6	0.0000298
1332.6	0.0000258
1330.7	0.0000244
1328.8	0.0000277
1326.9	0.0000304
1324.9	0.0000285
1323.0	0.0000189
1321.1	0.0000100
1319.1	0.0000101
1317.2	0.0000132
1315.3	0.0000167
1313.4	0.0000217
1311.4	0.0000246
1309.5	0.0000219
1307.6	0.0000133
1305.6	0.0000059
1303.7	0.0000067
1301.8	0.0000090
1299.9	0.0000046
1297.9	0.0000039
1296.0	0.0000140
1294.1	0.0000209
1292.1	0.0000210
1290.2	0.0000225
1288.3	0.0000260
1286.4	0.0000326
1284.4	0.0000413
1282.5	0.0000448
1280.6	0.0000437
1278.6	0.0000380
1276.7	0.0000253
1274.8	0.0000157
1272.9	0.0000149
1270.9	0.0000120
1269.0	0.0000047
1267.1	0.0000041
1265.1	0.0000123
1263.2	0.0000184
1261.3	0.0000194
1259.4	0.0000232
1257.4	0.0000288
1255.5	0.0000279
1253.6	0.0000231
1251.6	0.0000183
1249.7	0.0000121
1247.8	0.0000099
1245.9	0.0000139
1243.9	0.0000174
1242.0	0.0000204
1240.1	0.0000234
1238.1	0.0000232
1236.2	0.0000232
1234.3	0.0000210
1232.4	0.0000134
1230.4	0.0000097
1228.5	0.0000106
1226.6	0.0000053
1224.6	-0.0000027
1222.7	-0.0000001
1220.8	0.0000072
1218.9	0.0000034
1216.9	-0.0000027
1215.0	0.0000022
1213.1	0.0000086
1211.1	0.0000070
1209.2	0.0000003
1207.3	-0.0000025
1205.4	0.0000035
1203.4	0.0000101
1201.5	0.0000103
1199.6	0.0000033
1197.6	-0.0000109
1195.7	-0.0000211
1193.8	-0.0000163
1191.9	-0.0000103
1189.9	-0.0000219
1188.0	-0.0000354
1186.1	-0.0000343
1184.1	-0.0000443
1182.2	-0.0000664
1180.3	-0.0000525
1178.4	-0.0000104
1176.4	0.0000099
1174.5	0.0000067
1172.6	-0.0000050
1170.6	-0.0000220
1168.7	-0.0000359
1166.8	-0.0000412
1164.9	-0.0000414
1162.9	-0.0000385
1161.0	-0.0000358
1159.1	-0.0000396
1157.1	-0.0000451
1155.2	-0.0000456
1153.3	-0.0000505
1151.4	-0.0000615
1149.4	-0.0000634
1147.5	-0.0000596
1145.6	-0.0000658
1143.6	-0.0000705
1141.7	-0.0000542
1139.8	-0.0000319
1137.9	-0.0000273
1135.9	-0.0000344
1134.0	-0.0000387
1132.1	-0.0000391
1130.1	-0.0000371
1128.2	-0.0000364
1126.3	-0.0000402
1124.4	-0.0000427
1122.4	-0.0000428
1120.5	-0.0000458
1118.6	-0.0000476
1116.6	-0.0000411
1114.7	-0.0000350
1112.8	-0.0000417
1110.9	-0.0000571
1108.9	-0.0000649
1107.0	-0.0000636
1105.1	-0.0000632
1103.1	-0.0000590
1101.2	-0.0000469
1099.3	-0.0000444
1097.4	-0.0000559
1095.4	-0.0000639
1093.5	-0.0000589
1091.6	-0.0000528
1089.6	-0.0000627
1087.7	-0.0000798
1085.8	-0.0000811
1083.9	-0.0000722
1081.9	-0.0000733
1080.0	-0.0000859
1078.1	-0.0001028
1076.1	-0.0001202
1074.2	-0.0001176
1072.3	-0.0000812
1070.4	-0.0000415
1068.4	-0.0000373
1066.5	-0.0000615
1064.6	-0.0000779
1062.6	-0.0000739
1060.7	-0.0000680
1058.8	-0.0000715
1056.9	-0.0000696
1054.9	-0.0000614
1053.0	-0.0000655
1051.1	-0.0000699
1049.1	-0.0000558
1047.2	-0.0000359
1045.3	-0.0000260
1043.4	-0.0000291
1041.4	-0.0000396
1039.5	-0.0000485
1037.6	-0.0000516
1035.6	-0.0000477
1033.7	-0.0000390
1031.8	-0.0000301
1029.9	-0.0000223
1027.9	-0.0000176
1026.0	-0.0000162
1024.1	-0.0000140
1022.1	-0.0000148
1020.2	-0.0000192
1018.3	-0.0000187
1016.4	-0.0000149
1014.4	-0.0000163
1012.5	-0.0000195
1010.6	-0.0000161
1008.6	-0.0000036
1006.7	0.0000124
1004.8	0.0000269
1002.9	0.0000391
1000.9	0.0000465
999.0	0.0000486
997.1	0.0000498
995.1	0.0000489
993.2	0.0000448
991.3	0.0000472
989.4	0.0000608
987.4	0.0000742
985.5	0.0000822
983.6	0.0001009
981.6	0.0001282
979.7	0.0001364
977.8	0.0001215
975.9	0.0001114
973.9	0.0001177
972.0	0.0001212
970.1	0.0001141
968.1	0.0001119
966.2	0.0001200
964.3	0.0001227
962.4	0.0001175
960.4	0.0001207
958.5	0.0001291
956.6	0.0001280
954.6	0.0001170
952.7	0.0001058
950.8	0.0001030
948.9	0.0001064
946.9	0.0001024
945.0	0.0000872
943.1	0.0000839
941.1	0.0001012
939.2	0.0001158
937.3	0.0001129
935.4	0.0000984
933.4	0.0000914
931.5	0.0001058
929.6	0.0001266
927.6	0.0001283
925.7	0.0001130
923.8	0.0001013
921.9	0.0000940
919.9	0.0000846
918.0	0.0000798
916.1	0.0000835
914.1	0.0000958
912.2	0.0001129
910.3	0.0001140
908.4	0.0000957
906.4	0.0000875
904.5	0.0000923
902.6	0.0000847
900.6	0.0000603
898.7	0.0000379
896.8	0.0000387
894.9	0.0000601
892.9	0.0000760
891.0	0.0000721
889.1	0.0000588
887.1	0.0000482
885.2	0.0000454
883.3	0.0000461
881.4	0.0000371
879.4	0.0000171
877.5	0.0000084
875.6	0.0000166
873.6	0.0000214
871.7	0.0000240
869.8	0.0000384
867.9	0.0000452
865.9	0.0000274
864.0	0.0000113
862.1	0.0000155
860.1	0.0000233
858.2	0.0000295
856.3	0.0000354
854.4	0.0000338
852.4	0.0000317
850.5	0.0000407
848.6	0.0000555
846.6	0.0000598
844.7	0.0000614
842.8	0.0000734
840.9	0.0000712
838.9	0.0000517
837.0	0.0000351
835.1	0.0000114
833.1	-0.0000155
831.2	-0.0000234
829.3	-0.0000081
827.4	0.0000224
825.4	0.0000491
823.5	0.0000474
821.6	0.0000212
819.6	0.0000055
817.7	0.0000158
815.8	0.0000308
813.9	0.0000121
811.9	-0.0000331
810.0	-0.0000537
808.1	-0.0000321
806.1	0.0000043
804.2	0.0000190
802.3	0.0000277
800.4	0.0000516
798.4	0.0000567
796.5	0.0000514
794.6	0.0000856
792.6	0.0001322
790.7	0.0001211
788.8	0.0000889
786.9	0.0000986
784.9	0.0001140
783.0	0.0001071
781.1	0.0001034
779.1	0.0001034
777.2	0.0000798
775.3	0.0000339
773.4	-0.0000137
771.4	-0.0000247
769.5	0.0000216
767.6	0.0000674
765.6	0.0000879
763.7	0.0001068
761.8	0.0000913
759.9	0.0000209
757.9	-0.0000136
756.0	0.0000426
754.1	0.0001106
752.1	0.0001534
750.2	0.0001793
748.3	0.0001811
746.4	0.0001755
744.4	0.0001773
742.5	0.0001899
740.6	0.0002133
738.6	0.0002134
736.7	0.0001599
734.8	0.0001210
732.9	0.0001201
730.9	0.0000922
729.0	0.0000515
727.1	0.0000106
725.1	-0.0000408
723.2	-0.0000471
721.3	0.0000026
719.4	-0.0000189
717.4	-0.0001086
715.5	-0.0000483
713.6	0.0001526
711.6	0.0002533
709.7	0.0002131
707.8	0.0001362
705.9	0.0000110
703.9	-0.0001115
702.0	-0.0000858
700.1	0.0000314
698.1	0.0000910
696.2	0.0000680
694.3	0.0000133
692.4	-0.0000511
690.4	-0.0001227
688.5	-0.0001475
686.6	-0.0001181
684.6	-0.0001025
682.7	-0.0001415
680.8	-0.0001645
678.9	-0.0000831
676.9	0.0000306
675.0	-0.0000029
673.1	-0.0001989
671.1	-0.0002875
669.2	-0.0001891
667.3	-0.0000974
665.4	-0.0000338
663.4	0.0000208
661.5	0.0000043
659.6	-0.0000974
657.6	-0.0002116
655.7	-0.0002533
653.8	-0.0001794
651.9	-0.0000517
649.9	-0.0000209
648.0	-0.0000810
646.1	-0.0001203
644.1	-0.0000591
642.2	0.0000750
640.3	0.0001732
638.4	0.0001181
636.4	-0.0000831
634.5	-0.0001460
632.6	0.0000372
630.6	0.0002365
628.7	0.0002552
626.8	0.0001598
624.9	0.0000902
622.9	0.0000201
621.0	-0.0000096
619.1	0.0001096
617.1	0.0003178
615.2	0.0003471
613.3	0.0000875
611.4	-0.0002641
609.4	-0.0004267
607.5	-0.0002792
605.6	-0.0000628
603.6	0.0000529
601.7	0.0000881
599.8	0.0000702
597.9	0.0000324
595.9	0.0000133
594.0	0.0000606
592.1	0.0001313
590.1	0.0002120
588.2	0.0002392
586.3	0.0002136
584.4	0.0002107
582.4	0.0002310
580.5	0.0001570
578.6	-0.0001779
576.6	-0.0005618
574.7	-0.0007241
572.8	-0.0005886
570.9	-0.0003208
568.9	-0.0001419
567.0	-0.0000389
565.1	0.0000333
563.1	0.0002403
561.2	0.0004832
559.3	0.0005183
557.4	0.0003660
555.4	0.0002793
553.5	0.0002896
551.6	0.0001505
549.6	0.0000263
547.7	-0.0000423
545.8	0.0000044
543.9	0.0002283
541.9	0.0004241
540.0	0.0005427
538.1	0.0006818
536.1	0.0012394
534.2	0.0017630
532.3	0.0012293
530.4	-0.0000192
528.4	-0.0003263
526.5	0.0009495
524.6	0.0034006
522.6	0.0063414
520.7	0.0072148
518.8	0.0045913
516.9	0.0008247
514.9	0.0007671
513.0	0.0000950
511.1	-0.0118170
509.1	-0.0211813
507.2	-0.0122055
505.3	0.0005003
503.4	0.0023595
501.4	-0.0005021
499.5	-0.0018931
497.6	-0.0019008
495.6	-0.0018358
493.7	-0.0015821
491.8	-0.0008573
489.9	-0.0007077
487.9	-0.0013108
486.0	-0.0014293
484.1	-0.0004145
482.1	0.0006140
480.2	0.0006471
478.3	0.0001105
476.4	-0.0001847
474.4	-0.0003517
472.5	-0.0008380
470.6	-0.0010815
468.6	-0.0005751
466.7	0.0002177
464.8	0.0006356
462.9	0.0005620
460.9	0.0001312
459.0	-0.0005306
457.1	-0.0007992
455.1	-0.0003269
453.2	0.0003391
451.3	0.0008374
449.4	0.0011374
447.4	0.0008326
445.5	0.0000076
443.6	-0.0004410
441.6	-0.0005242
439.7	-0.0008511
437.8	-0.0012211
435.9	-0.0010113
433.9	-0.0000795
432.0	0.0006273
430.1	-0.0000235
428.1	-0.0014337
426.2	-0.0018432
424.3	-0.0010856
422.4	-0.0003745
420.4	-0.0001504
418.5	-0.0002492
416.6	-0.0006471
414.6	-0.0012725
412.7	-0.0014831
410.8	-0.0010047
408.9	-0.0004120
406.9	-0.0000001
405.0	0.0000790
403.1	-0.0000802
401.1	-0.0002292
399.2	-0.0002855
397.3	-0.0001479
395.4	0.0000846
393.4	0.0001151
391.5	-0.0003991
389.6	-0.0010244
387.6	-0.0011088
385.7	-0.0008486
383.8	-0.0007713
381.9	-0.0008922
379.9	-0.0009331
378.0	-0.0009665
376.1	-0.0009392
374.1	-0.0009452
372.2	-0.0006769
370.3	-0.0001997
368.4	-0.0001121
