3998.1	-0.0010226
3997.2	-0.0010272
3996.2	-0.0010294
3995.2	-0.0010316
3994.3	-0.0010300
3993.3	-0.0010241
3992.3	-0.0010172
3991.4	-0.0010068
3990.4	-0.0009936
3989.5	-0.0009865
3988.5	-0.0009943
3987.5	-0.0010109
3986.6	-0.0010183
3985.6	-0.0010131
3984.6	-0.0010059
3983.7	-0.0010043
3982.7	-0.0010051
3981.7	-0.0010032
3980.8	-0.0010020
3979.8	-0.0010049
3978.8	-0.0010098
3977.9	-0.0010123
3976.9	-0.0010073
3975.9	-0.0010011
3975.0	-0.0010020
3974.0	-0.0010069
3973.1	-0.0010089
3972.1	-0.0010089
3971.1	-0.0010124
3970.2	-0.0010153
3969.2	-0.0010116
3968.2	-0.0010066
3967.3	-0.0010049
3966.3	-0.0010053
3965.3	-0.0010083
3964.4	-0.0010123
3963.4	-0.0010102
3962.4	-0.0010002
3961.5	-0.0009935
3960.5	-0.0009978
3959.6	-0.0010079
3958.6	-0.0010125
3957.6	-0.0010099
3956.7	-0.0010073
3955.7	-0.0010068
3954.7	-0.0010050
3953.8	-0.0010035
3952.8	-0.0010070
3951.8	-0.0010123
3950.9	-0.0010127
3949.9	-0.0010107
3948.9	-0.0010090
3948.0	-0.0010052
3947.0	-0.0010007
3946.1	-0.0010014
3945.1	-0.0010076
3944.1	-0.0010109
3943.2	-0.0010102
3942.2	-0.0010098
3941.2	-0.0010069
3940.3	-0.0010003
3939.3	-0.0009953
3938.3	-0.0009974
3937.4	-0.0010031
3936.4	-0.0010037
3935.4	-0.0009992
3934.5	-0.0009958
3933.5	-0.0009983
3932.6	-0.0010033
3931.6	-0.0010022
3930.6	-0.0009953
3929.7	-0.0009912
3928.7	-0.0009930
3927.7	-0.0009954
3926.8	-0.0009941
3925.8	-0.0009942
3924.8	-0.0009986
3923.9	-0.0010024
3922.9	-0.0010032
3921.9	-0.0010034
3921.0	-0.0010040
3920.0	-0.0010017
3919.1	-0.0009989
3918.1	-0.0010016
3917.1	-0.0010037
3916.2	-0.0009969
3915.2	-0.0009846
3914.2	-0.0009801
3913.3	-0.0009911
3912.3	-0.0010064
3911.3	-0.0010092
3910.4	-0.0010001
3909.4	-0.0009922
3908.4	-0.0009911
3907.5	-0.0009936
3906.5	-0.0009968
3905.6	-0.0010022
3904.6	-0.0010064
3903.6	-0.0010071
3902.7	-0.0010097
3901.7	-0.0010112
3900.7	-0.0010078
3899.8	-0.0010075
3898.8	-0.0010097
3897.8	-0.0010069
3896.9	-0.0009997
3895.9	-0.0009915
3894.9	-0.0009852
3894.0	-0.0009841
3893.0	-0.0009916
3892.1	-0.0010046
3891.1	-0.0010115
3890.1	-0.0010053
3889.2	-0.0009920
3888.2	-0.0009844
3887.2	-0.0009939
3886.3	-0.0010104
3885.3	-0.0010135
3884.3	-0.0010060
3883.4	-0.0009992
3882.4	-0.0009957
3881.4	-0.0009995
3880.5	-0.0010042
3879.5	-0.0009998
3878.6	-0.0009907
3877.6	-0.0009828
3876.6	-0.0009784
3875.7	-0.0009863
3874.7	-0.0010019
3873.7	-0.0010045
3872.8	-0.0009972
3871.8	-0.0010064
3870.8	-0.0010318
3869.9	-0.0010402
3868.9	-0.0010213
3867.9	-0.0010004
3867.0	-0.0009941
3866.0	-0.0010024
3865.1	-0.0010151
3864.1	-0.0010161
3863.1	-0.0010026
3862.2	-0.0009842
3861.2	-0.0009706
3860.2	-0.0009676
3859.3	-0.0009724
3858.3	-0.0009800
3857.3	-0.0009872
3856.4	-0.0010066
3855.4	-0.0010587
3854.4	-0.0011091
3853.5	-0.0011105
3852.5	-0.0010816
3851.6	-0.0010430
3850.6	-0.0010018
3849.6	-0.0009801
3848.7	-0.0009807
3847.7	-0.0009861
3846.7	-0.0009861
3845.8	-0.0009874
3844.8	-0.0009913
3843.8	-0.0009814
3842.9	-0.0009646
3841.9	-0.0009695
3840.9	-0.0009883
3840.0	-0.0010034
3839.0	-0.0010257
3838.0	-0.0010425
3837.1	-0.0010319
3836.1	-0.0010131
3835.2	-0.0010011
3834.2	-0.0009946
3833.2	-0.0009971
3832.3	-0.0009997
3831.3	-0.0009867
3830.3	-0.0009702
3829.4	-0.0009667
3828.4	-0.0009694
3827.4	-0.0009714
3826.5	-0.0009746
3825.5	-0.0009761
3824.5	-0.0009737
3823.6	-0.0009776
3822.6	-0.0009954
3821.7	-0.0010092
3820.7	-0.0009993
3819.7	-0.0009764
3818.8	-0.0009660
3817.8	-0.0009899
3816.8	-0.0010350
3815.9	-0.0010496
3814.9	-0.0010170
3813.9	-0.0009783
3813.0	-0.0009600
3812.0	-0.0009546
3811.0	-0.0009576
3810.1	-0.0009680
3809.1	-0.0009821
3808.2	-0.0010025
3807.2	-0.0010181
3806.2	-0.0010090
3805.3	-0.0009846
3804.3	-0.0009722
3803.3	-0.0009904
3802.4	-0.0010288
3801.4	-0.0010417
3800.4	-0.0010125
3799.5	-0.0009842
3798.5	-0.0009852
3797.5	-0.0009963
3796.6	-0.0009953
3795.6	-0.0009836
3794.7	-0.0009723
3793.7	-0.0009649
3792.7	-0.0009595
3791.8	-0.0009574
3790.8	-0.0009610
3789.8	-0.0009672
3788.9	-0.0009705
3787.9	-0.0009712
3786.9	-0.0009721
3786.0	-0.0009718
3785.0	-0.0009689
3784.0	-0.0009643
3783.1	-0.0009598
3782.1	-0.0009596
3781.2	-0.0009673
3780.2	-0.0009787
3779.2	-0.0009815
3778.3	-0.0009729
3777.3	-0.0009651
3776.3	-0.0009635
3775.4	-0.0009613
3774.4	-0.0009562
3773.4	-0.0009533
3772.5	-0.0009550
3771.5	-0.0009639
3770.5	-0.0009777
3769.6	-0.0009817
3768.6	-0.0009725
3767.7	-0.0009665
3766.7	-0.0009677
3765.7	-0.0009670
3764.8	-0.0009652
3763.8	-0.0009671
3762.8	-0.0009678
3761.9	-0.0009667
3760.9	-0.0009703
3759.9	-0.0009758
3759.0	-0.0009731
3758.0	-0.0009658
3757.0	-0.0009645
3756.1	-0.0009660
3755.1	-0.0009650
3754.2	-0.0009767
3753.2	-0.0010098
3752.2	-0.0010321
3751.3	-0.0010293
3750.3	-0.0010303
3749.3	-0.0010315
3748.4	-0.0010108
3747.4	-0.0009901
3746.4	-0.0010049
3745.5	-0.0010541
3744.5	-0.0010770
3743.5	-0.0010370
3742.6	-0.0009852
3741.6	-0.0009617
3740.7	-0.0009551
3739.7	-0.0009553
3738.7	-0.0009644
3737.8	-0.0009793
3736.8	-0.0009909
3735.8	-0.0009916
3734.9	-0.0009840
3733.9	-0.0009833
3732.9	-0.0009952
3732.0	-0.0009995
3731.0	-0.0009855
3730.0	-0.0009685
3729.1	-0.0009592
3728.1	-0.0009601
3727.2	-0.0009683
3726.2	-0.0009679
3725.2	-0.0009565
3724.3	-0.0009513
3723.3	-0.0009572
3722.3	-0.0009603
3721.4	-0.0009548
3720.4	-0.0009504
3719.4	-0.0009528
3718.5	-0.0009554
3717.5	-0.0009543
3716.5	-0.0009527
3715.6	-0.0009539
3714.6	-0.0009606
3713.7	-0.0009775
3712.7	-0.0009951
3711.7	-0.0009934
3710.8	-0.0009816
3709.8	-0.0009756
3708.8	-0.0009654
3707.9	-0.0009499
3706.9	-0.0009422
3705.9	-0.0009398
3705.0	-0.0009384
3704.0	-0.0009427
3703.0	-0.0009534
3702.1	-0.0009623
3701.1	-0.0009579
3700.1	-0.0009449
3699.2	-0.0009406
3698.2	-0.0009456
3697.3	-0.0009478
3696.3	-0.0009465
3695.3	-0.0009457
3694.4	-0.0009430
3693.4	-0.0009426
3692.4	-0.0009537
3691.5	-0.0009682
3690.5	-0.0009777
3689.5	-0.0009968
3688.6	-0.0010149
3687.6	-0.0010010
3686.6	-0.0009715
3685.7	-0.0009528
3684.7	-0.0009430
3683.8	-0.0009408
3682.8	-0.0009447
3681.8	-0.0009489
3680.9	-0.0009540
3679.9	-0.0009594
3678.9	-0.0009645
3678.0	-0.0009785
3677.0	-0.0010061
3676.0	-0.0010278
3675.1	-0.0010192
3674.1	-0.0009901
3673.1	-0.0009715
3672.2	-0.0009812
3671.2	-0.0010075
3670.3	-0.0010195
3669.3	-0.0010067
3668.3	-0.0009815
3667.4	-0.0009584
3666.4	-0.0009479
3665.4	-0.0009492
3664.5	-0.0009506
3663.5	-0.0009483
3662.5	-0.0009482
3661.6	-0.0009522
3660.6	-0.0009569
3659.6	-0.0009618
3658.7	-0.0009678
3657.7	-0.0009769
3656.8	-0.0009846
3655.8	-0.0009813
3654.8	-0.0009734
3653.9	-0.0009750
3652.9	-0.0009858
3651.9	-0.0009999
3651.0	-0.0010159
3650.0	-0.0010299
3649.0	-0.0010316
3648.1	-0.0010190
3647.1	-0.0010045
3646.1	-0.0009967
3645.2	-0.0009891
3644.2	-0.0009768
3643.3	-0.0009702
3642.3	-0.0009749
3641.3	-0.0009796
3640.4	-0.0009800
3639.4	-0.0009821
3638.4	-0.0009874
3637.5	-0.0009906
3636.5	-0.0009931
3635.5	-0.0009999
3634.6	-0.0010089
3633.6	-0.0010141
3632.6	-0.0010138
3631.7	-0.0010143
3630.7	-0.0010275
3629.8	-0.0010511
3628.8	-0.0010583
3627.8	-0.0010410
3626.9	-0.0010215
3625.9	-0.0010129
3624.9	-0.0010121
3624.0	-0.0010158
3623.0	-0.0010205
3622.0	-0.0010273
3621.1	-0.0010388
3620.1	-0.0010487
3619.1	-0.0010499
3618.2	-0.0010445
3617.2	-0.0010366
3616.3	-0.0010331
3615.3	-0.0010391
3614.3	-0.0010484
3613.4	-0.0010537
3612.4	-0.0010527
3611.4	-0.0010523
3610.5	-0.0010624
3609.5	-0.0010722
3608.5	-0.0010685
3607.6	-0.0010606
3606.6	-0.0010575
3605.6	-0.0010556
3604.7	-0.0010585
3603.7	-0.0010652
3602.8	-0.0010665
3601.8	-0.0010659
3600.8	-0.0010710
3599.9	-0.0010773
3598.9	-0.0010782
3597.9	-0.0010746
3597.0	-0.0010752
3596.0	-0.0010823
3595.0	-0.0010878
3594.1	-0.0010900
3593.1	-0.0010930
3592.1	-0.0010954
3591.2	-0.0010955
3590.2	-0.0010976
3589.3	-0.0011037
3588.3	-0.0011085
3587.3	-0.0011086
3586.4	-0.0011050
3585.4	-0.0011001
3584.4	-0.0010978
3583.5	-0.0010979
3582.5	-0.0010992
3581.5	-0.0011023
3580.6	-0.0011048
3579.6	-0.0011046
3578.6	-0.0011057
3577.7	-0.0011088
3576.7	-0.0011105
3575.8	-0.0011129
3574.8	-0.0011190
3573.8	-0.0011208
3572.9	-0.0011153
3571.9	-0.0011112
3570.9	-0.0011138
3570.0	-0.0011197
3569.0	-0.0011229
3568.0	-0.0011239
3567.1	-0.0011248
3566.1	-0.0011240
3565.1	-0.0011240
3564.2	-0.0011276
3563.2	-0.0011304
3562.3	-0.0011283
3561.3	-0.0011250
3560.3	-0.0011269
3559.4	-0.0011323
3558.4	-0.0011341
3557.4	-0.0011297
3556.5	-0.0011227
3555.5	-0.0011230
3554.5	-0.0011298
3553.6	-0.0011352
3552.6	-0.0011405
3551.6	-0.0011433
3550.7	-0.0011397
3549.7	-0.0011361
3548.7	-0.0011358
3547.8	-0.0011385
3546.8	-0.0011440
3545.9	-0.0011461
3544.9	-0.0011413
3543.9	-0.0011389
3543.0	-0.0011433
3542.0	-0.0011478
3541.0	-0.0011505
3540.1	-0.0011526
3539.1	-0.0011540
3538.1	-0.0011553
3537.2	-0.0011573
3536.2	-0.0011612
3535.2	-0.0011628
3534.3	-0.0011571
3533.3	-0.0011517
3532.4	-0.0011563
3531.4	-0.0011664
3530.4	-0.0011720
3529.5	-0.0011721
3528.5	-0.0011717
3527.5	-0.0011723
3526.6	-0.0011728
3525.6	-0.0011726
3524.6	-0.0011722
3523.7	-0.0011724
3522.7	-0.0011746
3521.7	-0.0011763
3520.8	-0.0011757
3519.8	-0.0011763
3518.9	-0.0011793
3517.9	-0.0011791
3516.9	-0.0011753
3516.0	-0.0011756
3515.0	-0.0011804
3514.0	-0.0011833
3513.1	-0.0011821
3512.1	-0.0011789
3511.1	-0.0011785
3510.2	-0.0011828
3509.2	-0.0011895
3508.2	-0.0011952
3507.3	-0.0011974
3506.3	-0.0011987
3505.4	-0.0012001
3504.4	-0.0012000
3503.4	-0.0011980
3502.5	-0.0011960
3501.5	-0.0011957
3500.5	-0.0011955
3499.6	-0.0011954
3498.6	-0.0011982
3497.6	-0.0012012
3496.7	-0.0012030
3495.7	-0.0012054
3494.7	-0.0012057
3493.8	-0.0012043
3492.8	-0.0012059
3491.9	-0.0012090
3490.9	-0.0012087
3489.9	-0.0012064
3489.0	-0.0012059
3488.0	-0.0012112
3487.0	-0.0012194
3486.1	-0.0012225
3485.1	-0.0012181
3484.1	-0.0012139
3483.2	-0.0012162
3482.2	-0.0012217
3481.2	-0.0012249
3480.3	-0.0012265
3479.3	-0.0012260
3478.4	-0.0012231
3477.4	-0.0012211
3476.4	-0.0012205
3475.5	-0.0012205
3474.5	-0.0012200
3473.5	-0.0012177
3472.6	-0.0012187
3471.6	-0.0012258
3470.6	-0.0012313
3469.7	-0.0012306
3468.7	-0.0012270
3467.7	-0.0012230
3466.8	-0.0012198
3465.8	-0.0012205
3464.9	-0.0012271
3463.9	-0.0012369
3462.9	-0.0012405
3462.0	-0.0012368
3461.0	-0.0012351
3460.0	-0.0012357
3459.1	-0.0012357
3458.1	-0.0012357
3457.1	-0.0012339
3456.2	-0.0012312
3455.2	-0.0012304
3454.2	-0.0012295
3453.3	-0.0012263
3452.3	-0.0012256
3451.4	-0.0012318
3450.4	-0.0012403
3449.4	-0.0012451
3448.5	-0.0012451
3447.5	-0.0012420
3446.5	-0.0012403
3445.6	-0.0012411
3444.6	-0.0012432
3443.6	-0.0012466
3442.7	-0.0012494
3441.7	-0.0012492
3440.7	-0.0012446
3439.8	-0.0012390
3438.8	-0.0012385
3437.9	-0.0012406
3436.9	-0.0012413
3435.9	-0.0012417
3435.0	-0.0012449
3434.0	-0.0012489
3433.0	-0.0012475
3432.1	-0.0012430
3431.1	-0.0012432
3430.1	-0.0012457
3429.2	-0.0012450
3428.2	-0.0012450
3427.2	-0.0012482
3426.3	-0.0012472
3425.3	-0.0012410
3424.4	-0.0012385
3423.4	-0.0012406
3422.4	-0.0012425
3421.5	-0.0012440
3420.5	-0.0012452
3419.5	-0.0012453
3418.6	-0.0012458
3417.6	-0.0012471
3416.6	-0.0012493
3415.7	-0.0012506
3414.7	-0.0012484
3413.7	-0.0012466
3412.8	-0.0012473
3411.8	-0.0012473
3410.8	-0.0012459
3409.9	-0.0012451
3408.9	-0.0012448
3408.0	-0.0012446
3407.0	-0.0012458
3406.0	-0.0012467
3405.1	-0.0012464
3404.1	-0.0012493
3403.1	-0.0012554
3402.2	-0.0012569
3401.2	-0.0012515
3400.2	-0.0012448
3399.3	-0.0012415
3398.3	-0.0012419
3397.3	-0.0012449
3396.4	-0.0012465
3395.4	-0.0012438
3394.5	-0.0012414
3393.5	-0.0012455
3392.5	-0.0012493
3391.6	-0.0012452
3390.6	-0.0012399
3389.6	-0.0012386
3388.7	-0.0012365
3387.7	-0.0012315
3386.7	-0.0012271
3385.8	-0.0012260
3384.8	-0.0012280
3383.8	-0.0012334
3382.9	-0.0012383
3381.9	-0.0012363
3381.0	-0.0012305
3380.0	-0.0012309
3379.0	-0.0012355
3378.1	-0.0012375
3377.1	-0.0012394
3376.1	-0.0012437
3375.2	-0.0012460
3374.2	-0.0012444
3373.2	-0.0012409
3372.3	-0.0012358
3371.3	-0.0012316
3370.3	-0.0012326
3369.4	-0.0012367
3368.4	-0.0012364
3367.5	-0.0012302
3366.5	-0.0012245
3365.5	-0.0012247
3364.6	-0.0012286
3363.6	-0.0012299
3362.6	-0.0012293
3361.7	-0.0012294
3360.7	-0.0012257
3359.7	-0.0012224
3358.8	-0.0012254
3357.8	-0.0012296
3356.8	-0.0012316
3355.9	-0.0012310
3354.9	-0.0012276
3354.0	-0.0012246
3353.0	-0.0012251
3352.0	-0.0012272
3351.1	-0.0012281
3350.1	-0.0012289
3349.1	-0.0012275
3348.2	-0.0012205
3347.2	-0.0012138
3346.2	-0.0012132
3345.3	-0.0012162
3344.3	-0.0012204
3343.3	-0.0012235
3342.4	-0.0012243
3341.4	-0.0012240
3340.5	-0.0012227
3339.5	-0.0012194
3338.5	-0.0012167
3337.6	-0.0012174
3336.6	-0.0012168
3335.6	-0.0012122
3334.7	-0.0012096
3333.7	-0.0012126
3332.7	-0.0012157
3331.8	-0.0012158
3330.8	-0.0012140
3329.8	-0.0012116
3328.9	-0.0012114
3327.9	-0.0012144
3327.0	-0.0012177
3326.0	-0.0012195
3325.0	-0.0012195
3324.1	-0.0012159
3323.1	-0.0012095
3322.1	-0.0012069
3321.2	-0.0012109
3320.2	-0.0012156
3319.2	-0.0012196
3318.3	-0.0012211
3317.3	-0.0012167
3316.3	-0.0012110
3315.4	-0.0012088
3314.4	-0.0012087
3313.5	-0.0012094
3312.5	-0.0012101
3311.5	-0.0012113
3310.6	-0.0012124
3309.6	-0.0012116
3308.6	-0.0012092
3307.7	-0.0012083
3306.7	-0.0012116
3305.7	-0.0012161
3304.8	-0.0012176
3303.8	-0.0012158
3302.8	-0.0012113
3301.9	-0.0012046
3300.9	-0.0011975
3300.0	-0.0011953
3299.0	-0.0011987
3298.0	-0.0012010
3297.1	-0.0012018
3296.1	-0.0012050
3295.1	-0.0012055
3294.2	-0.0012008
3293.2	-0.0011985
3292.2	-0.0012015
3291.3	-0.0012034
3290.3	-0.0012027
3289.3	-0.0012040
3288.4	-0.0012041
3287.4	-0.0011988
3286.5	-0.0011937
3285.5	-0.0011922
3284.5	-0.0011936
3283.6	-0.0011960
3282.6	-0.0011968
3281.6	-0.0011973
3280.7	-0.0011998
3279.7	-0.0012030
3278.7	-0.0012041
3277.8	-0.0012017
3276.8	-0.0011979
3275.8	-0.0011964
3274.9	-0.0011966
3273.9	-0.0011959
3272.9	-0.0011946
3272.0	-0.0011964
3271.0	-0.0012007
3270.1	-0.0012002
3269.1	-0.0011967
3268.1	-0.0011985
3267.2	-0.0012014
3266.2	-0.0011989
3265.2	-0.0011925
3264.3	-0.0011847
3263.3	-0.0011790
3262.3	-0.0011796
3261.4	-0.0011850
3260.4	-0.0011877
3259.4	-0.0011859
3258.5	-0.0011829
3257.5	-0.0011802
3256.6	-0.0011791
3255.6	-0.0011804
3254.6	-0.0011846
3253.7	-0.0011925
3252.7	-0.0011987
3251.7	-0.0011996
3250.8	-0.0011973
3249.8	-0.0011947
3248.8	-0.0011950
3247.9	-0.0011960
3246.9	-0.0011928
3245.9	-0.0011880
3245.0	-0.0011854
3244.0	-0.0011842
3243.1	-0.0011844
3242.1	-0.0011839
3241.1	-0.0011817
3240.2	-0.0011797
3239.2	-0.0011779
3238.2	-0.0011793
3237.3	-0.0011861
3236.3	-0.0011909
3235.3	-0.0011891
3234.4	-0.0011844
3233.4	-0.0011801
3232.4	-0.0011785
3231.5	-0.0011791
3230.5	-0.0011783
3229.6	-0.0011757
3228.6	-0.0011729
3227.6	-0.0011703
3226.7	-0.0011705
3225.7	-0.0011742
3224.7	-0.0011766
3223.8	-0.0011741
3222.8	-0.0011716
3221.8	-0.0011740
3220.9	-0.0011778
3219.9	-0.0011792
3218.9	-0.0011764
3218.0	-0.0011708
3217.0	-0.0011704
3216.1	-0.0011755
3215.1	-0.0011776
3214.1	-0.0011745
3213.2	-0.0011720
3212.2	-0.0011723
3211.2	-0.0011728
3210.3	-0.0011715
3209.3	-0.0011691
3208.3	-0.0011661
3207.4	-0.0011634
3206.4	-0.0011640
3205.4	-0.0011682
3204.5	-0.0011691
3203.5	-0.0011647
3202.6	-0.0011593
3201.6	-0.0011574
3200.6	-0.0011598
3199.7	-0.0011618
3198.7	-0.0011588
3197.7	-0.0011532
3196.8	-0.0011496
3195.8	-0.0011499
3194.8	-0.0011516
3193.9	-0.0011541
3192.9	-0.0011568
3191.9	-0.0011570
3191.0	-0.0011538
3190.0	-0.0011504
3189.1	-0.0011483
3188.1	-0.0011462
3187.1	-0.0011434
3186.2	-0.0011405
3185.2	-0.0011400
3184.2	-0.0011415
3183.3	-0.0011419
3182.3	-0.0011418
3181.3	-0.0011457
3180.4	-0.0011496
3179.4	-0.0011456
3178.4	-0.0011364
3177.5	-0.0011311
3176.5	-0.0011308
3175.6	-0.0011309
3174.6	-0.0011318
3173.6	-0.0011353
3172.7	-0.0011374
3171.7	-0.0011359
3170.7	-0.0011352
3169.8	-0.0011355
3168.8	-0.0011341
3167.8	-0.0011320
3166.9	-0.0011306
3165.9	-0.0011319
3164.9	-0.0011351
3164.0	-0.0011354
3163.0	-0.0011334
3162.1	-0.0011318
3161.1	-0.0011289
3160.1	-0.0011240
3159.2	-0.0011219
3158.2	-0.0011248
3157.2	-0.0011268
3156.3	-0.0011255
3155.3	-0.0011232
3154.3	-0.0011190
3153.4	-0.0011149
3152.4	-0.0011169
3151.4	-0.0011203
3150.5	-0.0011178
3149.5	-0.0011118
3148.6	-0.0011082
3147.6	-0.0011076
3146.6	-0.0011083
3145.7	-0.0011073
3144.7	-0.0011048
3143.7	-0.0011051
3142.8	-0.0011079
3141.8	-0.0011093
3140.8	-0.0011081
3139.9	-0.0011040
3138.9	-0.0011001
3137.9	-0.0011008
3137.0	-0.0011032
3136.0	-0.0011004
3135.1	-0.0010931
3134.1	-0.0010876
3133.1	-0.0010867
3132.2	-0.0010892
3131.2	-0.0010926
3130.2	-0.0010954
3129.3	-0.0010979
3128.3	-0.0010994
3127.3	-0.0010979
3126.4	-0.0010949
3125.4	-0.0010935
3124.4	-0.0010925
3123.5	-0.0010910
3122.5	-0.0010910
3121.5	-0.0010931
3120.6	-0.0010958
3119.6	-0.0010958
3118.7	-0.0010916
3117.7	-0.0010879
3116.7	-0.0010868
3115.8	-0.0010829
3114.8	-0.0010754
3113.8	-0.0010711
3112.9	-0.0010726
3111.9	-0.0010765
3110.9	-0.0010787
3110.0	-0.0010776
3109.0	-0.0010749
3108.0	-0.0010741
3107.1	-0.0010751
3106.1	-0.0010757
3105.2	-0.0010737
3104.2	-0.0010703
3103.2	-0.0010697
3102.3	-0.0010714
3101.3	-0.0010726
3100.3	-0.0010713
3099.4	-0.0010667
3098.4	-0.0010612
3097.4	-0.0010568
3096.5	-0.0010555
3095.5	-0.0010591
3094.5	-0.0010627
3093.6	-0.0010618
3092.6	-0.0010577
3091.7	-0.0010534
3090.7	-0.0010513
3089.7	-0.0010517
3088.8	-0.0010520
3087.8	-0.0010507
3086.8	-0.0010494
3085.9	-0.0010499
3084.9	-0.0010500
3083.9	-0.0010492
3083.0	-0.0010508
3082.0	-0.0010540
3081.0	-0.0010524
3080.1	-0.0010473
3079.1	-0.0010445
3078.2	-0.0010454
3077.2	-0.0010485
3076.2	-0.0010502
3075.3	-0.0010487
3074.3	-0.0010471
3073.3	-0.0010470
3072.4	-0.0010468
3071.4	-0.0010454
3070.4	-0.0010433
3069.5	-0.0010382
3068.5	-0.0010303
3067.5	-0.0010255
3066.6	-0.0010259
3065.6	-0.0010280
3064.7	-0.0010290
3063.7	-0.0010300
3062.7	-0.0010311
3061.8	-0.0010294
3060.8	-0.0010259
3059.8	-0.0010260
3058.9	-0.0010278
3057.9	-0.0010261
3056.9	-0.0010222
3056.0	-0.0010206
3055.0	-0.0010225
3054.0	-0.0010249
3053.1	-0.0010236
3052.1	-0.0010202
3051.2	-0.0010189
3050.2	-0.0010201
3049.2	-0.0010201
3048.3	-0.0010172
3047.3	-0.0010148
3046.3	-0.0010165
3045.4	-0.0010174
3044.4	-0.0010135
3043.4	-0.0010098
3042.5	-0.0010103
3041.5	-0.0010141
3040.5	-0.0010193
3039.6	-0.0010220
3038.6	-0.0010195
3037.7	-0.0010148
3036.7	-0.0010092
3035.7	-0.0010032
3034.8	-0.0009999
3033.8	-0.0010014
3032.8	-0.0010038
3031.9	-0.0010035
3030.9	-0.0010019
3029.9	-0.0010000
3029.0	-0.0009974
3028.0	-0.0009960
3027.0	-0.0009969
3026.1	-0.0009991
3025.1	-0.0009986
3024.2	-0.0009945
3023.2	-0.0009924
3022.2	-0.0009927
3021.3	-0.0009921
3020.3	-0.0009907
3019.3	-0.0009910
3018.4	-0.0009940
3017.4	-0.0009975
3016.4	-0.0009974
3015.5	-0.0009931
3014.5	-0.0009890
3013.5	-0.0009875
3012.6	-0.0009875
3011.6	-0.0009868
3010.7	-0.0009852
3009.7	-0.0009833
3008.7	-0.0009803
3007.8	-0.0009754
3006.8	-0.0009743
3005.8	-0.0009786
3004.9	-0.0009816
3003.9	-0.0009811
3002.9	-0.0009804
3002.0	-0.0009801
3001.0	-0.0009799
3000.0	-0.0009776
2999.1	-0.0009735
2998.1	-0.0009716
2997.2	-0.0009705
2996.2	-0.0009678
2995.2	-0.0009675
2994.3	-0.0009704
2993.3	-0.0009728
2992.3	-0.0009757
2991.4	-0.0009781
2990.4	-0.0009752
2989.4	-0.0009686
2988.5	-0.0009635
2987.5	-0.0009596
2986.5	-0.0009554
2985.6	-0.0009534
2984.6	-0.0009553
2983.6	-0.0009582
2982.7	-0.0009600
2981.7	-0.0009600
2980.8	-0.0009578
2979.8	-0.0009547
2978.8	-0.0009519
2977.9	-0.0009503
2976.9	-0.0009491
2975.9	-0.0009482
2975.0	-0.0009487
2974.0	-0.0009528
2973.0	-0.0009575
2972.1	-0.0009561
2971.1	-0.0009503
2970.1	-0.0009488
2969.2	-0.0009508
2968.2	-0.0009506
2967.3	-0.0009486
2966.3	-0.0009485
2965.3	-0.0009510
2964.4	-0.0009540
2963.4	-0.0009543
2962.4	-0.0009522
2961.5	-0.0009505
2960.5	-0.0009488
2959.5	-0.0009464
2958.6	-0.0009460
2957.6	-0.0009458
2956.6	-0.0009430
2955.7	-0.0009422
2954.7	-0.0009441
2953.8	-0.0009458
2952.8	-0.0009453
2951.8	-0.0009405
2950.9	-0.0009339
2949.9	-0.0009325
2948.9	-0.0009368
2948.0	-0.0009398
2947.0	-0.0009373
2946.0	-0.0009343
2945.1	-0.0009342
2944.1	-0.0009339
2943.1	-0.0009333
2942.2	-0.0009333
2941.2	-0.0009314
2940.3	-0.0009277
2939.3	-0.0009256
2938.3	-0.0009279
2937.4	-0.0009342
2936.4	-0.0009387
2935.4	-0.0009380
2934.5	-0.0009330
2933.5	-0.0009299
2932.5	-0.0009307
2931.6	-0.0009283
2930.6	-0.0009231
2929.6	-0.0009228
2928.7	-0.0009272
2927.7	-0.0009291
2926.8	-0.0009275
2925.8	-0.0009261
2924.8	-0.0009265
2923.9	-0.0009270
2922.9	-0.0009251
2921.9	-0.0009228
2921.0	-0.0009234
2920.0	-0.0009245
2919.0	-0.0009245
2918.1	-0.0009251
2917.1	-0.0009270
2916.1	-0.0009279
2915.2	-0.0009259
2914.2	-0.0009220
2913.3	-0.0009172
2912.3	-0.0009136
2911.3	-0.0009136
2910.4	-0.0009152
2909.4	-0.0009141
2908.4	-0.0009090
2907.5	-0.0009039
2906.5	-0.0009028
2905.5	-0.0009052
2904.6	-0.0009082
2903.6	-0.0009102
2902.6	-0.0009116
2901.7	-0.0009127
2900.7	-0.0009107
2899.8	-0.0009056
2898.8	-0.0009028
2897.8	-0.0009011
2896.9	-0.0008995
2895.9	-0.0008991
2894.9	-0.0008975
2894.0	-0.0008950
2893.0	-0.0008956
2892.0	-0.0008993
2891.1	-0.0009018
2890.1	-0.0009006
2889.1	-0.0008987
2888.2	-0.0008979
2887.2	-0.0008951
2886.3	-0.0008898
2885.3	-0.0008870
2884.3	-0.0008883
2883.4	-0.0008905
2882.4	-0.0008917
2881.4	-0.0008920
2880.5	-0.0008936
2879.5	-0.0008966
2878.5	-0.0008963
2877.6	-0.0008928
2876.6	-0.0008909
2875.6	-0.0008885
2874.7	-0.0008830
2873.7	-0.0008790
2872.8	-0.0008809
2871.8	-0.0008862
2870.8	-0.0008893
2869.9	-0.0008880
2868.9	-0.0008833
2867.9	-0.0008784
2867.0	-0.0008771
2866.0	-0.0008792
2865.0	-0.0008808
2864.1	-0.0008808
2863.1	-0.0008833
2862.1	-0.0008867
2861.2	-0.0008864
2860.2	-0.0008848
2859.3	-0.0008848
2858.3	-0.0008855
2857.3	-0.0008860
2856.4	-0.0008870
2855.4	-0.0008881
2854.4	-0.0008859
2853.5	-0.0008819
2852.5	-0.0008814
2851.5	-0.0008819
2850.6	-0.0008788
2849.6	-0.0008775
2848.6	-0.0008812
2847.7	-0.0008825
2846.7	-0.0008792
2845.7	-0.0008749
2844.8	-0.0008713
2843.8	-0.0008714
2842.9	-0.0008744
2841.9	-0.0008750
2840.9	-0.0008726
2840.0	-0.0008697
2839.0	-0.0008692
2838.0	-0.0008716
2837.1	-0.0008716
2836.1	-0.0008673
2835.1	-0.0008641
2834.2	-0.0008644
2833.2	-0.0008663
2832.2	-0.0008684
2831.3	-0.0008681
2830.3	-0.0008638
2829.4	-0.0008600
2828.4	-0.0008603
2827.4	-0.0008608
2826.5	-0.0008596
2825.5	-0.0008602
2824.5	-0.0008626
2823.6	-0.0008638
2822.6	-0.0008635
2821.6	-0.0008625
2820.7	-0.0008596
2819.7	-0.0008562
2818.7	-0.0008560
2817.8	-0.0008589
2816.8	-0.0008624
2815.9	-0.0008623
2814.9	-0.0008584
2813.9	-0.0008562
2813.0	-0.0008576
2812.0	-0.0008576
2811.0	-0.0008554
2810.1	-0.0008567
2809.1	-0.0008624
2808.1	-0.0008653
2807.2	-0.0008623
2806.2	-0.0008577
2805.2	-0.0008557
2804.3	-0.0008563
2803.3	-0.0008575
2802.4	-0.0008579
2801.4	-0.0008574
2800.4	-0.0008556
2799.5	-0.0008527
2798.5	-0.0008496
2797.5	-0.0008478
2796.6	-0.0008489
2795.6	-0.0008501
2794.6	-0.0008500
2793.7	-0.0008512
2792.7	-0.0008511
2791.7	-0.0008482
2790.8	-0.0008484
2789.8	-0.0008506
2788.9	-0.0008481
2787.9	-0.0008410
2786.9	-0.0008368
2786.0	-0.0008373
2785.0	-0.0008393
2784.0	-0.0008396
2783.1	-0.0008384
2782.1	-0.0008373
2781.1	-0.0008388
2780.2	-0.0008422
2779.2	-0.0008429
2778.2	-0.0008390
2777.3	-0.0008351
2776.3	-0.0008347
2775.4	-0.0008384
2774.4	-0.0008431
2773.4	-0.0008427
2772.5	-0.0008371
2771.5	-0.0008333
2770.5	-0.0008335
2769.6	-0.0008350
2768.6	-0.0008361
2767.6	-0.0008363
2766.7	-0.0008363
2765.7	-0.0008352
2764.7	-0.0008327
2763.8	-0.0008314
2762.8	-0.0008325
2761.9	-0.0008331
2760.9	-0.0008304
2759.9	-0.0008283
2759.0	-0.0008302
2758.0	-0.0008313
2757.0	-0.0008275
2756.1	-0.0008225
2755.1	-0.0008231
2754.1	-0.0008290
2753.2	-0.0008322
2752.2	-0.0008315
2751.2	-0.0008324
2750.3	-0.0008332
2749.3	-0.0008305
2748.4	-0.0008284
2747.4	-0.0008305
2746.4	-0.0008322
2745.5	-0.0008299
2744.5	-0.0008277
2743.5	-0.0008299
2742.6	-0.0008337
2741.6	-0.0008348
2740.6	-0.0008319
2739.7	-0.0008266
2738.7	-0.0008231
2737.7	-0.0008231
2736.8	-0.0008238
2735.8	-0.0008225
2734.9	-0.0008197
2733.9	-0.0008180
2732.9	-0.0008195
2732.0	-0.0008216
2731.0	-0.0008223
2730.0	-0.0008217
2729.1	-0.0008206
2728.1	-0.0008209
2727.1	-0.0008232
2726.2	-0.0008242
2725.2	-0.0008212
2724.2	-0.0008169
2723.3	-0.0008156
2722.3	-0.0008169
2721.4	-0.0008184
2720.4	-0.0008175
2719.4	-0.0008143
2718.5	-0.0008114
2717.5	-0.0008106
2716.5	-0.0008120
2715.6	-0.0008142
2714.6	-0.0008145
2713.6	-0.0008142
2712.7	-0.0008157
2711.7	-0.0008175
2710.7	-0.0008192
2709.8	-0.0008196
2708.8	-0.0008167
2707.9	-0.0008139
2706.9	-0.0008159
2705.9	-0.0008182
2705.0	-0.0008137
2704.0	-0.0008073
2703.0	-0.0008072
2702.1	-0.0008111
2701.1	-0.0008123
2700.1	-0.0008097
2699.2	-0.0008064
2698.2	-0.0008034
2697.2	-0.0008005
2696.3	-0.0008000
2695.3	-0.0008029
2694.3	-0.0008041
2693.4	-0.0008024
2692.4	-0.0008027
2691.5	-0.0008058
2690.5	-0.0008076
2689.5	-0.0008076
2688.6	-0.0008072
2687.6	-0.0008049
2686.6	-0.0008016
2685.7	-0.0008001
2684.7	-0.0008015
2683.7	-0.0008036
2682.8	-0.0008041
2681.8	-0.0008048
2680.8	-0.0008066
2679.9	-0.0008045
2678.9	-0.0007988
2678.0	-0.0007960
2677.0	-0.0007961
2676.0	-0.0007952
2675.1	-0.0007931
2674.1	-0.0007916
2673.1	-0.0007929
2672.2	-0.0007964
2671.2	-0.0007958
2670.2	-0.0007912
2669.3	-0.0007893
2668.3	-0.0007904
2667.3	-0.0007909
2666.4	-0.0007906
2665.4	-0.0007911
2664.5	-0.0007926
2663.5	-0.0007938
2662.5	-0.0007933
2661.6	-0.0007919
2660.6	-0.0007921
2659.6	-0.0007937
2658.7	-0.0007957
2657.7	-0.0007984
2656.7	-0.0007990
2655.8	-0.0007950
2654.8	-0.0007893
2653.8	-0.0007870
2652.9	-0.0007887
2651.9	-0.0007913
2651.0	-0.0007935
2650.0	-0.0007954
2649.0	-0.0007945
2648.1	-0.0007916
2647.1	-0.0007907
2646.1	-0.0007913
2645.2	-0.0007896
2644.2	-0.0007854
2643.2	-0.0007830
2642.3	-0.0007849
2641.3	-0.0007868
2640.3	-0.0007857
2639.4	-0.0007837
2638.4	-0.0007826
2637.5	-0.0007819
2636.5	-0.0007825
2635.5	-0.0007831
2634.6	-0.0007833
2633.6	-0.0007835
2632.6	-0.0007839
2631.7	-0.0007838
2630.7	-0.0007814
2629.7	-0.0007786
2628.8	-0.0007802
2627.8	-0.0007860
2626.8	-0.0007893
2625.9	-0.0007878
2624.9	-0.0007847
2624.0	-0.0007819
2623.0	-0.0007813
2622.0	-0.0007842
2621.1	-0.0007884
2620.1	-0.0007900
2619.1	-0.0007882
2618.2	-0.0007843
2617.2	-0.0007818
2616.2	-0.0007825
2615.3	-0.0007822
2614.3	-0.0007815
2613.3	-0.0007820
2612.4	-0.0007802
2611.4	-0.0007774
2610.5	-0.0007774
2609.5	-0.0007782
2608.5	-0.0007774
2607.6	-0.0007757
2606.6	-0.0007739
2605.6	-0.0007745
2604.7	-0.0007759
2603.7	-0.0007766
2602.7	-0.0007785
2601.8	-0.0007813
2600.8	-0.0007818
2599.8	-0.0007796
2598.9	-0.0007759
2597.9	-0.0007713
2597.0	-0.0007691
2596.0	-0.0007701
2595.0	-0.0007708
2594.1	-0.0007711
2593.1	-0.0007715
2592.1	-0.0007715
2591.2	-0.0007732
2590.2	-0.0007741
2589.2	-0.0007708
2588.3	-0.0007688
2587.3	-0.0007700
2586.3	-0.0007705
2585.4	-0.0007711
2584.4	-0.0007721
2583.5	-0.0007710
2582.5	-0.0007676
2581.5	-0.0007653
2580.6	-0.0007661
2579.6	-0.0007670
2578.6	-0.0007663
2577.7	-0.0007645
2576.7	-0.0007644
2575.7	-0.0007677
2574.8	-0.0007697
2573.8	-0.0007665
2572.8	-0.0007631
2571.9	-0.0007658
2570.9	-0.0007700
2570.0	-0.0007694
2569.0	-0.0007666
2568.0	-0.0007658
2567.1	-0.0007645
2566.1	-0.0007602
2565.1	-0.0007566
2564.2	-0.0007580
2563.2	-0.0007639
2562.2	-0.0007680
2561.3	-0.0007653
2560.3	-0.0007599
2559.3	-0.0007580
2558.4	-0.0007599
2557.4	-0.0007635
2556.4	-0.0007654
2555.5	-0.0007633
2554.5	-0.0007613
2553.6	-0.0007634
2552.6	-0.0007683
2551.6	-0.0007715
2550.7	-0.0007711
2549.7	-0.0007676
2548.7	-0.0007630
2547.8	-0.0007611
2546.8	-0.0007614
2545.8	-0.0007607
2544.9	-0.0007599
2543.9	-0.0007600
2542.9	-0.0007588
2542.0	-0.0007546
2541.0	-0.0007514
2540.1	-0.0007542
2539.1	-0.0007613
2538.1	-0.0007643
2537.2	-0.0007616
2536.2	-0.0007582
2535.2	-0.0007573
2534.3	-0.0007576
2533.3	-0.0007584
2532.3	-0.0007590
2531.4	-0.0007570
2530.4	-0.0007545
2529.4	-0.0007545
2528.5	-0.0007554
2527.5	-0.0007557
2526.6	-0.0007551
2525.6	-0.0007543
2524.6	-0.0007538
2523.7	-0.0007537
2522.7	-0.0007557
2521.7	-0.0007582
2520.8	-0.0007570
2519.8	-0.0007547
2518.8	-0.0007543
2517.9	-0.0007544
2516.9	-0.0007538
2515.9	-0.0007538
2515.0	-0.0007561
2514.0	-0.0007584
2513.1	-0.0007573
2512.1	-0.0007540
2511.1	-0.0007520
2510.2	-0.0007507
2509.2	-0.0007491
2508.2	-0.0007484
2507.3	-0.0007483
2506.3	-0.0007498
2505.3	-0.0007527
2504.4	-0.0007534
2503.4	-0.0007515
2502.4	-0.0007506
2501.5	-0.0007513
2500.5	-0.0007510
2499.6	-0.0007501
2498.6	-0.0007513
2497.6	-0.0007523
2496.7	-0.0007475
2495.7	-0.0007418
2494.7	-0.0007427
2493.8	-0.0007471
2492.8	-0.0007498
2491.8	-0.0007512
2490.9	-0.0007522
2489.9	-0.0007513
2488.9	-0.0007493
2488.0	-0.0007480
2487.0	-0.0007464
2486.1	-0.0007437
2485.1	-0.0007428
2484.1	-0.0007454
2483.2	-0.0007481
2482.2	-0.0007490
2481.2	-0.0007477
2480.3	-0.0007452
2479.3	-0.0007450
2478.3	-0.0007490
2477.4	-0.0007518
2476.4	-0.0007502
2475.4	-0.0007481
2474.5	-0.0007470
2473.5	-0.0007449
2472.6	-0.0007440
2471.6	-0.0007453
2470.6	-0.0007455
2469.7	-0.0007431
2468.7	-0.0007413
2467.7	-0.0007421
2466.8	-0.0007451
2465.8	-0.0007468
2464.8	-0.0007450
2463.9	-0.0007438
2462.9	-0.0007456
2461.9	-0.0007480
2461.0	-0.0007481
2460.0	-0.0007459
2459.1	-0.0007440
2458.1	-0.0007438
2457.1	-0.0007428
2456.2	-0.0007425
2455.2	-0.0007433
2454.2	-0.0007407
2453.3	-0.0007372
2452.3	-0.0007381
2451.3	-0.0007389
2450.4	-0.0007367
2449.4	-0.0007356
2448.4	-0.0007377
2447.5	-0.0007409
2446.5	-0.0007449
2445.6	-0.0007475
2444.6	-0.0007465
2443.6	-0.0007439
2442.7	-0.0007425
2441.7	-0.0007412
2440.7	-0.0007383
2439.8	-0.0007358
2438.8	-0.0007352
2437.8	-0.0007355
2436.9	-0.0007366
2435.9	-0.0007387
2434.9	-0.0007408
2434.0	-0.0007404
2433.0	-0.0007381
2432.1	-0.0007358
2431.1	-0.0007339
2430.1	-0.0007326
2429.2	-0.0007328
2428.2	-0.0007331
2427.2	-0.0007338
2426.3	-0.0007375
2425.3	-0.0007405
2424.3	-0.0007390
2423.4	-0.0007378
2422.4	-0.0007404
2421.4	-0.0007424
2420.5	-0.0007403
2419.5	-0.0007367
2418.5	-0.0007328
2417.6	-0.0007297
2416.6	-0.0007300
2415.7	-0.0007327
2414.7	-0.0007353
2413.7	-0.0007360
2412.8	-0.0007360
2411.8	-0.0007355
2410.8	-0.0007334
2409.9	-0.0007329
2408.9	-0.0007342
2407.9	-0.0007337
2407.0	-0.0007325
2406.0	-0.0007315
2405.0	-0.0007296
2404.1	-0.0007275
2403.1	-0.0007263
2402.2	-0.0007260
2401.2	-0.0007274
2400.2	-0.0007289
2399.3	-0.0007285
2398.3	-0.0007275
2397.3	-0.0007291
2396.4	-0.0007336
2395.4	-0.0007380
2394.4	-0.0007400
2393.5	-0.0007369
2392.5	-0.0007313
2391.5	-0.0007274
2390.6	-0.0007271
2389.6	-0.0007298
2388.7	-0.0007310
2387.7	-0.0007301
2386.7	-0.0007308
2385.8	-0.0007340
2384.8	-0.0007359
2383.8	-0.0007331
2382.9	-0.0007277
2381.9	-0.0007261
2380.9	-0.0007296
2380.0	-0.0007342
2379.0	-0.0007375
2378.0	-0.0007411
2377.1	-0.0007453
2376.1	-0.0007485
2375.2	-0.0007495
2374.2	-0.0007484
2373.2	-0.0007467
2372.3	-0.0007469
2371.3	-0.0007501
2370.3	-0.0007533
2369.4	-0.0007557
2368.4	-0.0007593
2367.4	-0.0007638
2366.5	-0.0007680
2365.5	-0.0007729
2364.5	-0.0007786
2363.6	-0.0007834
2362.6	-0.0007869
2361.7	-0.0007871
2360.7	-0.0007826
2359.7	-0.0007762
2358.8	-0.0007737
2357.8	-0.0007740
2356.8	-0.0007711
2355.9	-0.0007633
2354.9	-0.0007569
2353.9	-0.0007552
2353.0	-0.0007524
2352.0	-0.0007460
2351.0	-0.0007414
2350.1	-0.0007407
2349.1	-0.0007397
2348.2	-0.0007381
2347.2	-0.0007381
2346.2	-0.0007410
2345.3	-0.0007475
2344.3	-0.0007545
2343.3	-0.0007594
2342.4	-0.0007631
2341.4	-0.0007652
2340.4	-0.0007652
2339.5	-0.0007652
2338.5	-0.0007665
2337.5	-0.0007659
2336.6	-0.0007622
2335.6	-0.0007592
2334.7	-0.0007592
2333.7	-0.0007607
2332.7	-0.0007618
2331.8	-0.0007619
2330.8	-0.0007599
2329.8	-0.0007580
2328.9	-0.0007572
2327.9	-0.0007554
2326.9	-0.0007519
2326.0	-0.0007483
2325.0	-0.0007461
2324.0	-0.0007447
2323.1	-0.0007428
2322.1	-0.0007413
2321.2	-0.0007384
2320.2	-0.0007329
2319.2	-0.0007287
2318.3	-0.0007294
2317.3	-0.0007314
2316.3	-0.0007289
2315.4	-0.0007240
2314.4	-0.0007232
2313.4	-0.0007244
2312.5	-0.0007236
2311.5	-0.0007224
2310.5	-0.0007225
2309.6	-0.0007225
2308.6	-0.0007224
2307.7	-0.0007226
2306.7	-0.0007221
2305.7	-0.0007201
2304.8	-0.0007187
2303.8	-0.0007187
2302.8	-0.0007185
2301.9	-0.0007177
2300.9	-0.0007154
2299.9	-0.0007132
2299.0	-0.0007138
2298.0	-0.0007149
2297.0	-0.0007140
2296.1	-0.0007122
2295.1	-0.0007116
2294.2	-0.0007123
2293.2	-0.0007142
2292.2	-0.0007144
2291.3	-0.0007119
2290.3	-0.0007118
2289.3	-0.0007140
2288.4	-0.0007133
2287.4	-0.0007112
2286.4	-0.0007108
2285.5	-0.0007110
2284.5	-0.0007120
2283.5	-0.0007123
2282.6	-0.0007100
2281.6	-0.0007079
2280.7	-0.0007092
2279.7	-0.0007111
2278.7	-0.0007102
2277.8	-0.0007083
2276.8	-0.0007088
2275.8	-0.0007111
2274.9	-0.0007115
2273.9	-0.0007097
2272.9	-0.0007095
2272.0	-0.0007117
2271.0	-0.0007120
2270.0	-0.0007102
2269.1	-0.0007095
2268.1	-0.0007071
2267.1	-0.0007039
2266.2	-0.0007068
2265.2	-0.0007118
2264.3	-0.0007105
2263.3	-0.0007076
2262.3	-0.0007089
2261.4	-0.0007115
2260.4	-0.0007123
2259.4	-0.0007079
2258.5	-0.0006986
2257.5	-0.0006907
2256.5	-0.0006900
2255.6	-0.0006964
2254.6	-0.0007050
2253.6	-0.0007079
2252.7	-0.0007067
2251.7	-0.0007079
2250.8	-0.0007091
2249.8	-0.0007080
2248.8	-0.0007061
2247.9	-0.0007056
2246.9	-0.0007072
2245.9	-0.0007083
2245.0	-0.0007067
2244.0	-0.0007018
2243.0	-0.0006987
2242.1	-0.0007004
2241.1	-0.0007018
2240.1	-0.0007003
2239.2	-0.0006985
2238.2	-0.0006991
2237.3	-0.0007029
2236.3	-0.0007072
2235.3	-0.0007076
2234.4	-0.0007054
2233.4	-0.0007052
2232.4	-0.0007058
2231.5	-0.0007040
2230.5	-0.0007025
2229.5	-0.0007043
2228.6	-0.0007079
2227.6	-0.0007080
2226.6	-0.0007042
2225.7	-0.0007026
2224.7	-0.0007051
2223.8	-0.0007066
2222.8	-0.0007047
2221.8	-0.0007026
2220.9	-0.0007020
2219.9	-0.0007025
2218.9	-0.0007037
2218.0	-0.0007058
2217.0	-0.0007082
2216.0	-0.0007078
2215.1	-0.0007040
2214.1	-0.0007025
2213.1	-0.0007043
2212.2	-0.0007054
2211.2	-0.0007050
2210.3	-0.0007021
2209.3	-0.0006987
2208.3	-0.0006976
2207.4	-0.0006983
2206.4	-0.0007003
2205.4	-0.0007037
2204.5	-0.0007046
2203.5	-0.0007021
2202.5	-0.0007019
2201.6	-0.0007052
2200.6	-0.0007071
2199.6	-0.0007058
2198.7	-0.0007037
2197.7	-0.0007036
2196.8	-0.0007034
2195.8	-0.0007005
2194.8	-0.0006967
2193.9	-0.0006959
2192.9	-0.0006968
2191.9	-0.0006990
2191.0	-0.0007022
2190.0	-0.0007023
2189.0	-0.0006994
2188.1	-0.0006982
2187.1	-0.0006987
2186.1	-0.0006977
2185.2	-0.0006940
2184.2	-0.0006904
2183.3	-0.0006912
2182.3	-0.0006937
2181.3	-0.0006935
2180.4	-0.0006934
2179.4	-0.0006953
2178.4	-0.0006958
2177.5	-0.0006947
2176.5	-0.0006941
2175.5	-0.0006938
2174.6	-0.0006914
2173.6	-0.0006872
2172.6	-0.0006859
2171.7	-0.0006892
2170.7	-0.0006938
2169.8	-0.0006957
2168.8	-0.0006930
2167.8	-0.0006900
2166.9	-0.0006905
2165.9	-0.0006928
2164.9	-0.0006945
2164.0	-0.0006948
2163.0	-0.0006933
2162.0	-0.0006912
2161.1	-0.0006903
2160.1	-0.0006905
2159.1	-0.0006910
2158.2	-0.0006912
2157.2	-0.0006906
2156.3	-0.0006903
2155.3	-0.0006908
2154.3	-0.0006918
2153.4	-0.0006937
2152.4	-0.0006944
2151.4	-0.0006922
2150.5	-0.0006896
2149.5	-0.0006893
2148.5	-0.0006888
2147.6	-0.0006857
2146.6	-0.0006849
2145.6	-0.0006886
2144.7	-0.0006922
2143.7	-0.0006935
2142.8	-0.0006947
2141.8	-0.0006958
2140.8	-0.0006946
2139.9	-0.0006914
2138.9	-0.0006899
2137.9	-0.0006900
2137.0	-0.0006883
2136.0	-0.0006868
2135.0	-0.0006869
2134.1	-0.0006862
2133.1	-0.0006847
2132.1	-0.0006863
2131.2	-0.0006898
2130.2	-0.0006914
2129.2	-0.0006904
2128.3	-0.0006889
2127.3	-0.0006880
2126.4	-0.0006870
2125.4	-0.0006859
2124.4	-0.0006865
2123.5	-0.0006882
2122.5	-0.0006888
2121.5	-0.0006893
2120.6	-0.0006912
2119.6	-0.0006928
2118.6	-0.0006915
2117.7	-0.0006877
2116.7	-0.0006854
2115.7	-0.0006871
2114.8	-0.0006891
2113.8	-0.0006899
2112.9	-0.0006903
2111.9	-0.0006904
2110.9	-0.0006902
2110.0	-0.0006900
2109.0	-0.0006905
2108.0	-0.0006909
2107.1	-0.0006894
2106.1	-0.0006890
2105.1	-0.0006906
2104.2	-0.0006909
2103.2	-0.0006887
2102.2	-0.0006849
2101.3	-0.0006814
2100.3	-0.0006814
2099.4	-0.0006848
2098.4	-0.0006882
2097.4	-0.0006892
2096.5	-0.0006883
2095.5	-0.0006871
2094.5	-0.0006865
2093.6	-0.0006857
2092.6	-0.0006852
2091.6	-0.0006868
2090.7	-0.0006875
2089.7	-0.0006840
2088.7	-0.0006813
2087.8	-0.0006829
2086.8	-0.0006838
2085.9	-0.0006825
2084.9	-0.0006825
2083.9	-0.0006826
2083.0	-0.0006824
2082.0	-0.0006828
2081.0	-0.0006825
2080.1	-0.0006821
2079.1	-0.0006838
2078.1	-0.0006864
2077.2	-0.0006875
2076.2	-0.0006859
2075.2	-0.0006827
2074.3	-0.0006808
2073.3	-0.0006822
2072.4	-0.0006845
2071.4	-0.0006834
2070.4	-0.0006812
2069.5	-0.0006803
2068.5	-0.0006792
2067.5	-0.0006785
2066.6	-0.0006779
2065.6	-0.0006766
2064.6	-0.0006754
2063.7	-0.0006744
2062.7	-0.0006749
2061.7	-0.0006772
2060.8	-0.0006783
2059.8	-0.0006765
2058.9	-0.0006746
2057.9	-0.0006747
2056.9	-0.0006765
2056.0	-0.0006785
2055.0	-0.0006787
2054.0	-0.0006783
2053.1	-0.0006782
2052.1	-0.0006791
2051.1	-0.0006801
2050.2	-0.0006789
2049.2	-0.0006761
2048.2	-0.0006757
2047.3	-0.0006782
2046.3	-0.0006799
2045.4	-0.0006792
2044.4	-0.0006772
2043.4	-0.0006747
2042.5	-0.0006722
2041.5	-0.0006710
2040.5	-0.0006739
2039.6	-0.0006800
2038.6	-0.0006840
2037.6	-0.0006839
2036.7	-0.0006806
2035.7	-0.0006753
2034.7	-0.0006719
2033.8	-0.0006722
2032.8	-0.0006725
2031.9	-0.0006722
2030.9	-0.0006738
2029.9	-0.0006778
2029.0	-0.0006798
2028.0	-0.0006779
2027.0	-0.0006756
2026.1	-0.0006737
2025.1	-0.0006718
2024.1	-0.0006707
2023.2	-0.0006711
2022.2	-0.0006717
2021.2	-0.0006712
2020.3	-0.0006712
2019.3	-0.0006725
2018.4	-0.0006730
2017.4	-0.0006742
2016.4	-0.0006766
2015.5	-0.0006770
2014.5	-0.0006764
2013.5	-0.0006771
2012.6	-0.0006772
2011.6	-0.0006750
2010.6	-0.0006716
2009.7	-0.0006689
2008.7	-0.0006675
2007.7	-0.0006674
2006.8	-0.0006712
2005.8	-0.0006756
2004.9	-0.0006750
2003.9	-0.0006717
2002.9	-0.0006711
2002.0	-0.0006721
2001.0	-0.0006709
2000.0	-0.0006686
1999.1	-0.0006687
1998.1	-0.0006700
1997.1	-0.0006707
1996.2	-0.0006709
1995.2	-0.0006718
1994.2	-0.0006737
1993.3	-0.0006756
1992.3	-0.0006748
1991.3	-0.0006717
1990.4	-0.0006698
1989.4	-0.0006691
1988.5	-0.0006680
1987.5	-0.0006676
1986.5	-0.0006686
1985.6	-0.0006702
1984.6	-0.0006725
1983.6	-0.0006745
1982.7	-0.0006757
1981.7	-0.0006745
1980.7	-0.0006702
1979.8	-0.0006653
1978.8	-0.0006613
1977.8	-0.0006592
1976.9	-0.0006597
1975.9	-0.0006630
1975.0	-0.0006680
1974.0	-0.0006713
1973.0	-0.0006721
1972.1	-0.0006735
1971.1	-0.0006735
1970.1	-0.0006687
1969.2	-0.0006661
1968.2	-0.0006700
1967.2	-0.0006739
1966.3	-0.0006727
1965.3	-0.0006696
1964.3	-0.0006671
1963.4	-0.0006650
1962.4	-0.0006631
1961.5	-0.0006628
1960.5	-0.0006671
1959.5	-0.0006736
1958.6	-0.0006734
1957.6	-0.0006659
1956.6	-0.0006597
1955.7	-0.0006591
1954.7	-0.0006610
1953.7	-0.0006634
1952.8	-0.0006650
1951.8	-0.0006649
1950.8	-0.0006640
1949.9	-0.0006625
1948.9	-0.0006605
1948.0	-0.0006604
1947.0	-0.0006627
1946.0	-0.0006655
1945.1	-0.0006672
1944.1	-0.0006679
1943.1	-0.0006680
1942.2	-0.0006671
1941.2	-0.0006655
1940.2	-0.0006662
1939.3	-0.0006683
1938.3	-0.0006681
1937.3	-0.0006651
1936.4	-0.0006624
1935.4	-0.0006619
1934.5	-0.0006636
1933.5	-0.0006648
1932.5	-0.0006641
1931.6	-0.0006633
1930.6	-0.0006621
1929.6	-0.0006594
1928.7	-0.0006571
1927.7	-0.0006565
1926.7	-0.0006576
1925.8	-0.0006590
1924.8	-0.0006598
1923.8	-0.0006603
1922.9	-0.0006592
1921.9	-0.0006567
1921.0	-0.0006558
1920.0	-0.0006585
1919.0	-0.0006653
1918.1	-0.0006702
1917.1	-0.0006678
1916.1	-0.0006637
1915.2	-0.0006615
1914.2	-0.0006585
1913.2	-0.0006561
1912.3	-0.0006579
1911.3	-0.0006618
1910.3	-0.0006641
1909.4	-0.0006639
1908.4	-0.0006621
1907.5	-0.0006608
1906.5	-0.0006606
1905.5	-0.0006599
1904.6	-0.0006578
1903.6	-0.0006571
1902.6	-0.0006588
1901.7	-0.0006602
1900.7	-0.0006605
1899.7	-0.0006610
1898.8	-0.0006616
1897.8	-0.0006617
1896.8	-0.0006625
1895.9	-0.0006646
1894.9	-0.0006655
1894.0	-0.0006627
1893.0	-0.0006577
1892.0	-0.0006540
1891.1	-0.0006552
1890.1	-0.0006610
1889.1	-0.0006644
1888.2	-0.0006634
1887.2	-0.0006617
1886.2	-0.0006604
1885.3	-0.0006594
1884.3	-0.0006589
1883.3	-0.0006595
1882.4	-0.0006606
1881.4	-0.0006593
1880.5	-0.0006578
1879.5	-0.0006589
1878.5	-0.0006606
1877.6	-0.0006602
1876.6	-0.0006579
1875.6	-0.0006549
1874.7	-0.0006519
1873.7	-0.0006509
1872.7	-0.0006516
1871.8	-0.0006537
1870.8	-0.0006622
1869.8	-0.0006743
1868.9	-0.0006776
1867.9	-0.0006711
1867.0	-0.0006639
1866.0	-0.0006588
1865.0	-0.0006556
1864.1	-0.0006555
1863.1	-0.0006570
1862.1	-0.0006573
1861.2	-0.0006554
1860.2	-0.0006538
1859.2	-0.0006538
1858.3	-0.0006532
1857.3	-0.0006523
1856.3	-0.0006520
1855.4	-0.0006514
1854.4	-0.0006509
1853.5	-0.0006526
1852.5	-0.0006560
1851.5	-0.0006567
1850.6	-0.0006552
1849.6	-0.0006555
1848.6	-0.0006553
1847.7	-0.0006532
1846.7	-0.0006552
1845.7	-0.0006683
1844.8	-0.0006850
1843.8	-0.0006845
1842.8	-0.0006659
1841.9	-0.0006532
1840.9	-0.0006551
1839.9	-0.0006588
1839.0	-0.0006564
1838.0	-0.0006536
1837.1	-0.0006535
1836.1	-0.0006524
1835.1	-0.0006493
1834.2	-0.0006470
1833.2	-0.0006473
1832.2	-0.0006517
1831.3	-0.0006603
1830.3	-0.0006676
1829.3	-0.0006653
1828.4	-0.0006560
1827.4	-0.0006495
1826.4	-0.0006498
1825.5	-0.0006534
1824.5	-0.0006523
1823.6	-0.0006469
1822.6	-0.0006439
1821.6	-0.0006441
1820.7	-0.0006448
1819.7	-0.0006443
1818.7	-0.0006432
1817.8	-0.0006438
1816.8	-0.0006460
1815.8	-0.0006472
1814.9	-0.0006456
1813.9	-0.0006416
1812.9	-0.0006392
1812.0	-0.0006421
1811.0	-0.0006458
1810.1	-0.0006442
1809.1	-0.0006410
1808.1	-0.0006401
1807.2	-0.0006388
1806.2	-0.0006367
1805.2	-0.0006366
1804.3	-0.0006391
1803.3	-0.0006436
1802.3	-0.0006470
1801.4	-0.0006475
1800.4	-0.0006479
1799.4	-0.0006471
1798.5	-0.0006423
1797.5	-0.0006381
1796.6	-0.0006386
1795.6	-0.0006405
1794.6	-0.0006449
1793.7	-0.0006582
1792.7	-0.0006694
1791.7	-0.0006634
1790.8	-0.0006482
1789.8	-0.0006374
1788.8	-0.0006345
1787.9	-0.0006363
1786.9	-0.0006382
1785.9	-0.0006413
1785.0	-0.0006449
1784.0	-0.0006424
1783.1	-0.0006365
1782.1	-0.0006359
1781.1	-0.0006401
1780.2	-0.0006418
1779.2	-0.0006405
1778.2	-0.0006413
1777.3	-0.0006463
1776.3	-0.0006508
1775.3	-0.0006509
1774.4	-0.0006571
1773.4	-0.0006771
1772.4	-0.0006906
1771.5	-0.0006796
1770.5	-0.0006604
1769.6	-0.0006535
1768.6	-0.0006571
1767.6	-0.0006568
1766.7	-0.0006487
1765.7	-0.0006427
1764.7	-0.0006419
1763.8	-0.0006464
1762.8	-0.0006590
1761.8	-0.0006685
1760.9	-0.0006620
1759.9	-0.0006518
1758.9	-0.0006512
1758.0	-0.0006550
1757.0	-0.0006551
1756.1	-0.0006487
1755.1	-0.0006402
1754.1	-0.0006364
1753.2	-0.0006434
1752.2	-0.0006594
1751.2	-0.0006680
1750.3	-0.0006624
1749.3	-0.0006558
1748.3	-0.0006520
1747.4	-0.0006472
1746.4	-0.0006434
1745.4	-0.0006417
1744.5	-0.0006418
1743.5	-0.0006395
1742.6	-0.0006355
1741.6	-0.0006407
1740.6	-0.0006564
1739.7	-0.0006620
1738.7	-0.0006488
1737.7	-0.0006372
1736.8	-0.0006429
1735.8	-0.0006720
1734.8	-0.0007119
1733.9	-0.0007225
1732.9	-0.0006914
1731.9	-0.0006549
1731.0	-0.0006399
1730.0	-0.0006380
1729.1	-0.0006354
1728.1	-0.0006343
1727.1	-0.0006375
1726.2	-0.0006404
1725.2	-0.0006403
1724.2	-0.0006382
1723.3	-0.0006362
1722.3	-0.0006358
1721.3	-0.0006384
1720.4	-0.0006493
1719.4	-0.0006759
1718.4	-0.0007117
1717.5	-0.0007279
1716.5	-0.0007137
1715.6	-0.0006938
1714.6	-0.0006801
1713.6	-0.0006669
1712.7	-0.0006590
1711.7	-0.0006596
1710.7	-0.0006626
1709.8	-0.0006615
1708.8	-0.0006590
1707.8	-0.0006656
1706.9	-0.0006781
1705.9	-0.0006842
1704.9	-0.0006821
1704.0	-0.0006758
1703.0	-0.0006728
1702.0	-0.0006963
1701.1	-0.0007486
1700.1	-0.0007718
1699.2	-0.0007334
1698.2	-0.0006946
1697.2	-0.0007109
1696.3	-0.0007493
1695.3	-0.0007411
1694.3	-0.0006946
1693.4	-0.0006654
1692.4	-0.0006613
1691.4	-0.0006646
1690.5	-0.0006687
1689.5	-0.0006701
1688.5	-0.0006685
1687.6	-0.0006696
1686.6	-0.0006922
1685.7	-0.0007445
1684.7	-0.0007794
1683.7	-0.0007556
1682.8	-0.0007088
1681.8	-0.0006823
1680.8	-0.0006764
1679.9	-0.0006763
1678.9	-0.0006756
1677.9	-0.0006770
1677.0	-0.0006895
1676.0	-0.0007130
1675.0	-0.0007210
1674.1	-0.0007039
1673.1	-0.0006905
1672.2	-0.0006941
1671.2	-0.0007072
1670.2	-0.0007236
1669.3	-0.0007279
1668.3	-0.0007110
1667.3	-0.0006927
1666.4	-0.0006888
1665.4	-0.0006959
1664.4	-0.0007107
1663.5	-0.0007262
1662.5	-0.0007290
1661.5	-0.0007187
1660.6	-0.0007092
1659.6	-0.0007078
1658.7	-0.0007119
1657.7	-0.0007157
1656.7	-0.0007193
1655.8	-0.0007377
1654.8	-0.0007901
1653.8	-0.0008651
1652.9	-0.0008925
1651.9	-0.0008332
1650.9	-0.0007582
1650.0	-0.0007325
1649.0	-0.0007445
1648.0	-0.0007667
1647.1	-0.0007910
1646.1	-0.0008022
1645.2	-0.0007849
1644.2	-0.0007569
1643.2	-0.0007414
1642.3	-0.0007377
1641.3	-0.0007391
1640.3	-0.0007440
1639.4	-0.0007525
1638.4	-0.0007637
1637.4	-0.0007848
1636.5	-0.0008216
1635.5	-0.0008437
1634.5	-0.0008204
1633.6	-0.0007818
1632.6	-0.0007654
1631.7	-0.0007664
1630.7	-0.0007678
1629.7	-0.0007645
1628.8	-0.0007655
1627.8	-0.0007716
1626.8	-0.0007734
1625.9	-0.0007746
1624.9	-0.0007853
1623.9	-0.0007981
1623.0	-0.0007954
1622.0	-0.0007803
1621.0	-0.0007698
1620.1	-0.0007682
1619.1	-0.0007746
1618.2	-0.0008009
1617.2	-0.0008389
1616.2	-0.0008420
1615.3	-0.0008059
1614.3	-0.0007758
1613.3	-0.0007658
1612.4	-0.0007661
1611.4	-0.0007695
1610.4	-0.0007695
1609.5	-0.0007653
1608.5	-0.0007624
1607.5	-0.0007621
1606.6	-0.0007599
1605.6	-0.0007571
1604.7	-0.0007588
1603.7	-0.0007617
1602.7	-0.0007594
1601.8	-0.0007543
1600.8	-0.0007532
1599.8	-0.0007561
1598.9	-0.0007577
1597.9	-0.0007561
1596.9	-0.0007538
1596.0	-0.0007525
1595.0	-0.0007515
1594.0	-0.0007502
1593.1	-0.0007517
1592.1	-0.0007548
1591.2	-0.0007526
1590.2	-0.0007450
1589.2	-0.0007390
1588.3	-0.0007403
1587.3	-0.0007467
1586.3	-0.0007512
1585.4	-0.0007505
1584.4	-0.0007469
1583.4	-0.0007437
1582.5	-0.0007438
1581.5	-0.0007461
1580.5	-0.0007460
1579.6	-0.0007440
1578.6	-0.0007504
1577.7	-0.0007810
1576.7	-0.0008205
1575.7	-0.0008188
1574.8	-0.0007768
1573.8	-0.0007443
1572.8	-0.0007354
1571.9	-0.0007378
1570.9	-0.0007503
1569.9	-0.0007638
1569.0	-0.0007595
1568.0	-0.0007435
1567.0	-0.0007344
1566.1	-0.0007340
1565.1	-0.0007337
1564.1	-0.0007293
1563.2	-0.0007250
1562.2	-0.0007340
1561.3	-0.0007710
1560.3	-0.0008211
1559.3	-0.0008511
1558.4	-0.0008456
1557.4	-0.0008038
1556.4	-0.0007575
1555.5	-0.0007446
1554.5	-0.0007483
1553.5	-0.0007346
1552.6	-0.0007104
1551.6	-0.0006985
1550.6	-0.0006999
1549.7	-0.0007015
1548.7	-0.0006979
1547.8	-0.0006957
1546.8	-0.0007029
1545.8	-0.0007171
1544.9	-0.0007253
1543.9	-0.0007288
1542.9	-0.0007411
1542.0	-0.0007554
1541.0	-0.0007710
1540.0	-0.0007954
1539.1	-0.0007941
1538.1	-0.0007479
1537.1	-0.0006986
1536.2	-0.0006782
1535.2	-0.0006844
1534.3	-0.0007019
1533.3	-0.0007063
1532.3	-0.0006922
1531.4	-0.0006789
1530.4	-0.0006724
1529.4	-0.0006708
1528.5	-0.0006728
1527.5	-0.0006755
1526.5	-0.0006807
1525.6	-0.0006839
1524.6	-0.0006817
1523.6	-0.0006907
1522.7	-0.0007182
1521.7	-0.0007400
1520.8	-0.0007278
1519.8	-0.0006942
1518.8	-0.0006798
1517.9	-0.0006906
1516.9	-0.0006963
1515.9	-0.0006856
1515.0	-0.0006740
1514.0	-0.0006717
1513.0	-0.0006734
1512.1	-0.0006693
1511.1	-0.0006639
1510.1	-0.0006668
1509.2	-0.0006813
1508.2	-0.0007118
1507.3	-0.0007491
1506.3	-0.0007611
1505.3	-0.0007327
1504.4	-0.0006907
1503.4	-0.0006674
1502.4	-0.0006630
1501.5	-0.0006597
1500.5	-0.0006574
1499.5	-0.0006643
1498.6	-0.0006723
1497.6	-0.0006789
1496.6	-0.0006871
1495.7	-0.0006779
1494.7	-0.0006517
1493.8	-0.0006336
1492.8	-0.0006321
1491.8	-0.0006442
1490.9	-0.0006582
1489.9	-0.0006577
1488.9	-0.0006480
1488.0	-0.0006438
1487.0	-0.0006417
1486.0	-0.0006348
1485.1	-0.0006286
1484.1	-0.0006257
1483.1	-0.0006244
1482.2	-0.0006244
1481.2	-0.0006259
1480.3	-0.0006283
1479.3	-0.0006290
1478.3	-0.0006304
1477.4	-0.0006376
1476.4	-0.0006437
1475.4	-0.0006463
1474.5	-0.0006582
1473.5	-0.0006789
1472.5	-0.0006868
1471.6	-0.0006690
1470.6	-0.0006415
1469.6	-0.0006292
1468.7	-0.0006322
1467.7	-0.0006391
1466.8	-0.0006489
1465.8	-0.0006618
1464.8	-0.0006665
1463.9	-0.0006548
1462.9	-0.0006394
1461.9	-0.0006337
1461.0	-0.0006378
1460.0	-0.0006502
1459.0	-0.0006711
1458.1	-0.0007022
1457.1	-0.0007245
1456.1	-0.0007093
1455.2	-0.0006741
1454.2	-0.0006528
1453.3	-0.0006453
1452.3	-0.0006428
1451.3	-0.0006449
1450.4	-0.0006486
1449.4	-0.0006544
1448.4	-0.0006615
1447.5	-0.0006630
1446.5	-0.0006584
1445.5	-0.0006539
1444.6	-0.0006518
1443.6	-0.0006525
1442.6	-0.0006563
1441.7	-0.0006596
1440.7	-0.0006614
1439.8	-0.0006648
1438.8	-0.0006749
1437.8	-0.0006964
1436.9	-0.0007119
1435.9	-0.0007031
1434.9	-0.0006846
1434.0	-0.0006730
1433.0	-0.0006679
1432.0	-0.0006688
1431.1	-0.0006750
1430.1	-0.0006808
1429.1	-0.0006807
1428.2	-0.0006777
1427.2	-0.0006755
1426.3	-0.0006726
1425.3	-0.0006708
1424.3	-0.0006748
1423.4	-0.0006800
1422.4	-0.0006807
1421.4	-0.0006880
1420.5	-0.0007145
1419.5	-0.0007380
1418.5	-0.0007278
1417.6	-0.0006994
1416.6	-0.0006844
1415.6	-0.0006859
1414.7	-0.0006899
1413.7	-0.0006909
1412.7	-0.0006928
1411.8	-0.0006942
1410.8	-0.0006930
1409.9	-0.0006947
1408.9	-0.0007008
1407.9	-0.0007065
1407.0	-0.0007096
1406.0	-0.0007119
1405.0	-0.0007121
1404.1	-0.0007069
1403.1	-0.0007020
1402.1	-0.0007043
1401.2	-0.0007112
1400.2	-0.0007197
1399.2	-0.0007245
1398.3	-0.0007207
1397.3	-0.0007143
1396.4	-0.0007142
1395.4	-0.0007205
1394.4	-0.0007240
1393.5	-0.0007183
1392.5	-0.0007086
1391.5	-0.0007036
1390.6	-0.0007038
1389.6	-0.0007081
1388.6	-0.0007185
1387.7	-0.0007291
1386.7	-0.0007329
1385.7	-0.0007367
1384.8	-0.0007427
1383.8	-0.0007393
1382.9	-0.0007254
1381.9	-0.0007142
1380.9	-0.0007129
1380.0	-0.0007140
1379.0	-0.0007114
1378.0	-0.0007090
1377.1	-0.0007088
1376.1	-0.0007092
1375.1	-0.0007094
1374.2	-0.0007092
1373.2	-0.0007075
1372.2	-0.0007040
1371.3	-0.0007010
1370.3	-0.0007003
1369.4	-0.0007010
1368.4	-0.0007004
1367.4	-0.0006979
1366.5	-0.0006957
1365.5	-0.0006938
1364.5	-0.0006938
1363.6	-0.0006986
1362.6	-0.0007023
1361.6	-0.0006982
1360.7	-0.0006915
1359.7	-0.0006898
1358.7	-0.0006898
1357.8	-0.0006870
1356.8	-0.0006823
1355.9	-0.0006791
1354.9	-0.0006771
1353.9	-0.0006767
1353.0	-0.0006787
1352.0	-0.0006792
1351.0	-0.0006755
1350.1	-0.0006718
1349.1	-0.0006700
1348.1	-0.0006671
1347.2	-0.0006631
1346.2	-0.0006596
1345.2	-0.0006583
1344.3	-0.0006603
1343.3	-0.0006637
1342.4	-0.0006668
1341.4	-0.0006683
1340.4	-0.0006682
1339.5	-0.0006678
1338.5	-0.0006652
1337.5	-0.0006598
1336.6	-0.0006560
1335.6	-0.0006557
1334.6	-0.0006539
1333.7	-0.0006475
1332.7	-0.0006425
1331.7	-0.0006421
1330.8	-0.0006411
1329.8	-0.0006379
1328.9	-0.0006375
1327.9	-0.0006391
1326.9	-0.0006407
1326.0	-0.0006428
1325.0	-0.0006430
1324.0	-0.0006393
1323.1	-0.0006336
1322.1	-0.0006311
1321.1	-0.0006322
1320.2	-0.0006299
1319.2	-0.0006246
1318.2	-0.0006234
1317.3	-0.0006251
1316.3	-0.0006244
1315.4	-0.0006208
1314.4	-0.0006184
1313.4	-0.0006210
1312.5	-0.0006238
1311.5	-0.0006207
1310.5	-0.0006164
1309.6	-0.0006167
1308.6	-0.0006178
1307.6	-0.0006165
1306.7	-0.0006158
1305.7	-0.0006156
1304.7	-0.0006125
1303.8	-0.0006077
1302.8	-0.0006036
1301.9	-0.0005991
1300.9	-0.0005948
1299.9	-0.0005925
1299.0	-0.0005942
1298.0	-0.0005991
1297.0	-0.0006020
1296.1	-0.0006003
1295.1	-0.0005965
1294.1	-0.0005950
1293.2	-0.0005976
1292.2	-0.0006006
1291.2	-0.0006002
1290.3	-0.0005990
1289.3	-0.0006000
1288.4	-0.0005992
1287.4	-0.0005942
1286.4	-0.0005893
1285.5	-0.0005863
1284.5	-0.0005858
1283.5	-0.0005867
1282.6	-0.0005877
1281.6	-0.0005892
1280.6	-0.0005903
1279.7	-0.0005892
1278.7	-0.0005889
1277.7	-0.0005922
1276.8	-0.0005961
1275.8	-0.0005979
1274.8	-0.0006004
1273.9	-0.0006070
1272.9	-0.0006160
1272.0	-0.0006205
1271.0	-0.0006161
1270.0	-0.0006101
1269.1	-0.0006070
1268.1	-0.0006043
1267.1	-0.0006043
1266.2	-0.0006061
1265.2	-0.0006053
1264.2	-0.0006059
1263.3	-0.0006084
1262.3	-0.0006099
1261.3	-0.0006126
1260.4	-0.0006165
1259.4	-0.0006181
1258.5	-0.0006160
1257.5	-0.0006120
1256.5	-0.0006101
1255.6	-0.0006082
1254.6	-0.0006023
1253.6	-0.0005968
1252.7	-0.0005967
1251.7	-0.0005991
1250.7	-0.0006009
1249.8	-0.0006024
1248.8	-0.0006025
1247.8	-0.0006046
1246.9	-0.0006114
1245.9	-0.0006143
1245.0	-0.0006081
1244.0	-0.0006024
1243.0	-0.0006028
1242.1	-0.0006051
1241.1	-0.0006063
1240.1	-0.0006099
1239.2	-0.0006158
1238.2	-0.0006205
1237.2	-0.0006219
1236.3	-0.0006193
1235.3	-0.0006153
1234.3	-0.0006131
1233.4	-0.0006101
1232.4	-0.0006043
1231.5	-0.0005986
1230.5	-0.0006008
1229.5	-0.0006104
1228.6	-0.0006175
1227.6	-0.0006188
1226.6	-0.0006189
1225.7	-0.0006201
1224.7	-0.0006216
1223.7	-0.0006216
1222.8	-0.0006222
1221.8	-0.0006300
1220.8	-0.0006366
1219.9	-0.0006303
1218.9	-0.0006213
1218.0	-0.0006184
1217.0	-0.0006115
1216.0	-0.0006037
1215.1	-0.0006074
1214.1	-0.0006176
1213.1	-0.0006276
1212.2	-0.0006375
1211.2	-0.0006439
1210.2	-0.0006424
1209.3	-0.0006334
1208.3	-0.0006257
1207.3	-0.0006217
1206.4	-0.0006142
1205.4	-0.0006106
1204.5	-0.0006185
1203.5	-0.0006261
1202.5	-0.0006274
1201.6	-0.0006276
1200.6	-0.0006278
1199.6	-0.0006257
1198.7	-0.0006218
1197.7	-0.0006200
1196.7	-0.0006197
1195.8	-0.0006175
1194.8	-0.0006172
1193.8	-0.0006214
1192.9	-0.0006307
1191.9	-0.0006443
1191.0	-0.0006531
1190.0	-0.0006522
1189.0	-0.0006429
1188.1	-0.0006317
1187.1	-0.0006313
1186.1	-0.0006405
1185.2	-0.0006463
1184.2	-0.0006523
1183.2	-0.0006768
1182.3	-0.0007116
1181.3	-0.0007053
1180.3	-0.0006480
1179.4	-0.0006014
1178.4	-0.0005927
1177.5	-0.0005988
1176.5	-0.0006102
1175.5	-0.0006302
1174.6	-0.0006444
1173.6	-0.0006397
1172.6	-0.0006346
1171.7	-0.0006413
1170.7	-0.0006460
1169.7	-0.0006459
1168.8	-0.0006477
1167.8	-0.0006524
1166.8	-0.0006615
1165.9	-0.0006644
1164.9	-0.0006516
1164.0	-0.0006414
1163.0	-0.0006482
1162.0	-0.0006622
1161.1	-0.0006751
1160.1	-0.0006832
1159.1	-0.0006853
1158.2	-0.0006813
1157.2	-0.0006668
1156.2	-0.0006479
1155.3	-0.0006445
1154.3	-0.0006626
1153.3	-0.0006855
1152.4	-0.0006970
1151.4	-0.0006959
1150.5	-0.0006852
1149.5	-0.0006708
1148.5	-0.0006743
1147.6	-0.0007017
1146.6	-0.0007271
1145.6	-0.0007326
1144.7	-0.0007239
1143.7	-0.0007110
1142.7	-0.0006945
1141.8	-0.0006774
1140.8	-0.0006697
1139.8	-0.0006706
1138.9	-0.0006718
1137.9	-0.0006699
1136.9	-0.0006708
1136.0	-0.0006886
1135.0	-0.0007179
1134.1	-0.0007309
1133.1	-0.0007161
1132.1	-0.0006881
1131.2	-0.0006697
1130.2	-0.0006701
1129.2	-0.0006762
1128.3	-0.0006740
1127.3	-0.0006667
1126.3	-0.0006643
1125.4	-0.0006677
1124.4	-0.0006752
1123.4	-0.0006835
1122.5	-0.0006840
1121.5	-0.0006811
1120.6	-0.0006929
1119.6	-0.0007130
1118.6	-0.0007161
1117.7	-0.0007007
1116.7	-0.0006879
1115.7	-0.0006863
1114.8	-0.0006941
1113.8	-0.0007041
1112.8	-0.0007060
1111.9	-0.0006993
1110.9	-0.0006930
1109.9	-0.0006972
1109.0	-0.0007127
1108.0	-0.0007203
1107.1	-0.0007043
1106.1	-0.0006809
1105.1	-0.0006754
1104.2	-0.0006847
1103.2	-0.0006893
1102.2	-0.0006808
1101.3	-0.0006791
1100.3	-0.0007066
1099.3	-0.0007391
1098.4	-0.0007397
1097.4	-0.0007214
1096.4	-0.0007114
1095.5	-0.0007087
1094.5	-0.0007119
1093.6	-0.0007229
1092.6	-0.0007246
1091.6	-0.0007098
1090.7	-0.0006930
1089.7	-0.0006774
1088.7	-0.0006660
1087.8	-0.0006731
1086.8	-0.0006959
1085.8	-0.0007150
1084.9	-0.0007194
1083.9	-0.0007209
1082.9	-0.0007321
1082.0	-0.0007452
1081.0	-0.0007498
1080.1	-0.0007392
1079.1	-0.0007140
1078.1	-0.0006946
1077.2	-0.0006976
1076.2	-0.0007083
1075.2	-0.0007028
1074.3	-0.0006854
1073.3	-0.0006796
1072.3	-0.0006881
1071.4	-0.0006939
1070.4	-0.0006904
1069.4	-0.0006879
1068.5	-0.0006927
1067.5	-0.0006985
1066.6	-0.0006987
1065.6	-0.0006955
1064.6	-0.0006955
1063.7	-0.0006943
1062.7	-0.0006865
1061.7	-0.0006796
1060.8	-0.0006879
1059.8	-0.0007049
1058.8	-0.0007116
1057.9	-0.0007097
1056.9	-0.0007072
1055.9	-0.0006963
1055.0	-0.0006759
1054.0	-0.0006721
1053.1	-0.0006900
1052.1	-0.0006913
1051.1	-0.0006696
1050.2	-0.0006604
1049.2	-0.0006742
1048.2	-0.0006938
1047.3	-0.0007104
1046.3	-0.0007274
1045.3	-0.0007443
1044.4	-0.0007490
1043.4	-0.0007355
1042.4	-0.0007163
1041.5	-0.0007122
1040.5	-0.0007264
1039.6	-0.0007296
1038.6	-0.0007063
1037.6	-0.0006873
1036.7	-0.0006854
1035.7	-0.0006716
1034.7	-0.0006350
1033.8	-0.0006074
1032.8	-0.0006223
1031.8	-0.0006565
1030.9	-0.0006531
1029.9	-0.0006189
1028.9	-0.0006078
1028.0	-0.0006261
1027.0	-0.0006514
1026.1	-0.0006764
1025.1	-0.0006876
1024.1	-0.0006855
1023.2	-0.0006831
1022.2	-0.0006630
1021.2	-0.0006314
1020.3	-0.0006253
1019.3	-0.0006370
1018.3	-0.0006485
1017.4	-0.0006577
1016.4	-0.0006492
1015.4	-0.0006374
1014.5	-0.0006403
1013.5	-0.0006571
1012.6	-0.0006891
1011.6	-0.0007146
1010.6	-0.0007277
1009.7	-0.0007200
1008.7	-0.0006619
1007.7	-0.0006018
1006.8	-0.0006054
1005.8	-0.0006448
1004.8	-0.0006671
1003.9	-0.0006715
1002.9	-0.0006943
1001.9	-0.0007353
1001.0	-0.0007476
1000.0	-0.0007253
999.1	-0.0006783
998.1	-0.0005845
997.1	-0.0005026
996.2	-0.0005365
995.2	-0.0006607
994.2	-0.0007622
993.3	-0.0007683
992.3	-0.0007150
991.3	-0.0007169
990.4	-0.0007969
989.4	-0.0008377
988.4	-0.0007423
987.5	-0.0006099
986.5	-0.0005736
985.5	-0.0005550
984.6	-0.0005009
983.6	-0.0005124
982.7	-0.0006061
981.7	-0.0007023
980.7	-0.0007256
979.8	-0.0006901
978.8	-0.0007003
977.8	-0.0007539
976.9	-0.0007159
975.9	-0.0005527
974.9	-0.0004485
974.0	-0.0005395
973.0	-0.0006969
972.0	-0.0007787
971.1	-0.0007966
970.1	-0.0007652
969.2	-0.0006894
968.2	-0.0006291
967.2	-0.0006111
966.3	-0.0006115
965.3	-0.0006245
964.3	-0.0006674
963.4	-0.0007220
962.4	-0.0007259
961.4	-0.0007436
960.5	-0.0008620
959.5	-0.0008753
958.5	-0.0006632
957.6	-0.0005034
956.6	-0.0005182
955.7	-0.0005209
954.7	-0.0005139
953.7	-0.0006270
952.8	-0.0007651
951.8	-0.0007467
950.8	-0.0006055
949.9	-0.0005976
948.9	-0.0008049
947.9	-0.0009840
947.0	-0.0010003
946.0	-0.0009122
945.0	-0.0007075
944.1	-0.0004401
943.1	-0.0003389
942.2	-0.0004700
941.2	-0.0006115
940.2	-0.0006293
939.3	-0.0006367
938.3	-0.0006963
937.3	-0.0007761
936.4	-0.0008928
935.4	-0.0009144
934.4	-0.0007257
933.5	-0.0005832
932.5	-0.0006451
931.5	-0.0007654
930.6	-0.0008300
929.6	-0.0006863
928.7	-0.0003288
927.7	-0.0001858
926.7	-0.0003112
925.8	-0.0001997
924.8	-0.0001297
923.8	-0.0007638
922.9	-0.0015693
921.9	-0.0016500
920.9	-0.0012217
920.0	-0.0009349
919.0	-0.0007972
918.0	-0.0007229
917.1	-0.0009244
916.1	-0.0012338
915.2	-0.0012739
914.2	-0.0012019
913.2	-0.0013506
912.3	-0.0014130
911.3	-0.0010487
910.3	-0.0006183
909.4	-0.0005040
908.4	-0.0007232
907.4	-0.0010674
906.5	-0.0013059
905.5	-0.0014458
904.5	-0.0014951
903.6	-0.0012171
902.6	-0.0008711
901.7	-0.0011808
900.7	-0.0019290
899.7	-0.0024041
898.8	-0.0024098
897.8	-0.0019185
896.8	-0.0013578
895.9	-0.0013042
894.9	-0.0016705
893.9	-0.0022353
893.0	-0.0031337
892.0	-0.0039181
891.0	-0.0036155
890.1	-0.0025850
889.1	-0.0020743
888.2	-0.0021956
887.2	-0.0024605
886.2	-0.0027627
885.3	-0.0032167
884.3	-0.0037851
883.3	-0.0036053
882.4	-0.0026324
881.4	-0.0021991
880.4	-0.0023500
879.5	-0.0021806
878.5	-0.0019310
877.5	-0.0019767
876.6	-0.0019470
875.6	-0.0027368
874.7	-0.0044092
873.7	-0.0049600
872.7	-0.0055564
871.8	-0.0077875
870.8	-0.0099178
869.8	-0.0093960
868.9	-0.0042517
867.9	0.0006052
866.9	-0.0021658
866.0	-0.0092421
865.0	-0.0120905
864.0	-0.0117499
863.1	-0.0162101
862.1	-0.0260218
861.2	-0.0333693
860.2	-0.0319839
859.2	-0.0243447
858.3	-0.0140308
857.3	0.0023341
856.3	0.0184232
855.4	0.0231171
854.4	0.0241814
853.4	0.0216831
852.5	0.0070314
851.5	0.0019968
850.5	0.0239126
849.6	0.0386554
848.6	0.0240709
847.6	0.0199026
846.7	0.0317779
845.7	0.0163870
844.8	-0.0170296
843.8	-0.0198218
842.8	0.0001756
841.9	0.0292087
840.9	0.0627306
839.9	0.0827233
839.0	0.0754714
838.0	0.0308656
837.0	-0.0291131
836.1	-0.0425655
835.1	0.0105211
834.1	0.0518308
833.2	0.0625577
832.2	0.0588840
831.3	0.0834598
830.3	0.2299608
829.3	0.4836268
828.4	0.7453767
827.4	0.7671328
826.4	0.6000846
825.5	0.5761487
824.5	0.5565960
823.5	0.3759073
822.6	0.3291349
821.6	0.4593361
820.6	0.4824476
819.7	0.3555548
818.7	0.3311741
817.8	0.3607592
816.8	0.3218231
815.8	0.2767737
814.9	0.2309499
813.9	0.1092131
812.9	0.0779900
812.0	0.2514446
811.0	0.4667299
810.0	0.5417958
809.1	0.4665080
808.1	0.3624843
807.1	0.3558724
806.2	0.4705447
805.2	0.5545992
804.3	0.5046639
803.3	0.3452399
802.3	0.2120991
801.4	0.1498115
800.4	0.1677568
799.4	0.3693840
798.5	0.9246951
797.5	2.0108149
796.5	0.8477511
795.6	0.4045679
794.6	0.2517540
793.6	0.2066071
792.7	0.1723513
791.7	0.1004343
790.8	0.0779940
789.8	0.1841418
788.8	0.3200650
787.9	0.3551077
786.9	0.4323826
785.9	1.7539192
785.0	6.0000000
784.0	1.7302189
783.0	1.2492841
782.1	1.5274098
781.1	0.8764762
780.1	0.2990624
779.2	-0.0025230
778.2	0.0532152
777.3	6.0000000
776.3	6.0000000
775.3	6.0000000
774.4	0.1764967
773.4	-0.2153511
772.4	-0.1682444
771.5	6.0000000
770.5	6.0000000
769.5	6.0000000
768.6	-1.0000440
767.6	-0.6369821
766.6	-0.3856662
765.7	-0.2161194
764.7	-0.2385465
763.8	-0.1960087
762.8	6.0000000
761.8	6.0000000
760.9	6.0000000
759.9	0.0040896
758.9	0.3835750
758.0	6.0000000
757.0	0.6909900
756.0	0.2701776
755.1	0.2638891
754.1	0.5178003
753.1	0.8676230
752.2	6.0000000
751.2	6.0000000
750.3	0.5331420
749.3	0.3483901
748.3	0.2772314
747.4	0.2236719
746.4	0.2321655
745.4	0.1782402
744.5	0.0799449
743.5	0.1162947
742.5	0.2424896
741.6	0.2901105
740.6	0.2628886
739.6	0.2912829
738.7	0.3345427
737.7	0.3333277
736.8	0.3776323
735.8	0.5112565
734.8	0.5065755
733.9	0.2976021
732.9	0.1353313
731.9	0.2502292
731.0	0.5734091
730.0	0.6753664
729.0	0.3210264
728.1	0.2692495
727.1	0.3545654
726.1	0.4037572
725.2	0.5558878
724.2	0.7568328
723.3	0.6334195
722.3	0.4701285
721.3	0.4460182
720.4	0.3494281
719.4	0.2232197
718.4	0.1733230
717.5	0.1694499
716.5	0.2184345
715.5	0.3611000
714.6	0.4754572
713.6	0.3919885
712.6	0.3172193
711.7	0.3238210
710.7	0.2833276
709.7	0.1898417
708.8	0.0617618
707.8	-0.0267743
706.9	-0.0060235
705.9	-0.0082255
704.9	0.0162797
704.0	0.0987115
703.0	0.0973934
702.0	0.0391598
701.1	0.1580645
700.1	0.4409188
699.1	0.5546721
698.2	0.5037919
697.2	0.4499198
696.2	0.4313249
695.3	0.1977905
694.3	-0.1279248
693.4	-0.1950466
692.4	-0.0507257
691.4	0.1204351
690.5	0.2630433
689.5	0.2710880
688.5	0.1711493
687.6	0.1533811
686.6	0.2214923
685.6	0.3644104
684.7	0.5067054
683.7	0.4701893
682.7	0.2965345
681.8	0.1329384
680.8	-0.0022147
679.9	-0.0248182
678.9	0.0855905
677.9	0.2240731
677.0	0.3894995
676.0	0.4715326
675.0	0.3527421
674.1	0.2868064
673.1	0.2750524
672.1	0.1934249
671.2	0.0567534
670.2	-0.0190504
669.2	0.0065865
668.3	-0.0125062
667.3	-0.0773311
666.4	0.1342546
665.4	0.5284515
664.4	0.2847905
663.5	-0.0615453
662.5	-0.1142730
661.5	-0.0633595
660.6	-0.0963865
659.6	-0.1786498
