3997.9	1.2451625164465666e-05
3996.0	8.002490132059839e-06
3994.1	-4.2236538180400594e-06
3992.1	-1.527314458359729e-05
3990.2	-2.178708152624141e-05
3988.3	-2.553514935919302e-05
3986.3	-2.2115973880415186e-05
3984.4	-1.4360226109838706e-05
3982.5	-8.344203498854828e-06
3980.6	-2.786370059938598e-06
3978.6	-1.3592076409531698e-06
3976.7	-1.3187792992544225e-05
3974.8	-3.162472101749428e-05
3972.8	-4.1984640124750254e-05
3970.9	-4.468708152624141e-05
3969.0	-4.795712197261342e-05
3967.1	-4.589476146386628e-05
3965.1	-3.515193216704839e-05
3963.2	-3.200666146873934e-05
3961.3	-3.6860323570976066e-05
3959.3	-3.266520637395838e-05
3957.4	-2.2400760196871492e-05
3955.5	-1.9191706057209687e-05
3953.6	-1.8918205740460995e-05
3951.6	-1.4004673261536958e-05
3949.7	-1.1748618488377738e-05
3947.8	-1.8363929633058806e-05
3945.8	-2.987888504458848e-05
3943.9	-3.628483504702501e-05
3942.0	-2.6853145558208643e-05
3940.1	-1.4706758929876684e-05
3938.1	-1.919485892500365e-05
3936.2	-3.2588601919984416e-05
3934.3	-3.490787485989965e-05
3932.3	-2.5249783148969396e-05
3930.4	-2.1464738560498983e-05
3928.5	-2.8208942059353864e-05
3926.6	-2.819713951561815e-05
3924.6	-1.825293601676327e-05
3922.7	-1.199057550801616e-05
3920.8	-1.3965903221090591e-05
3918.8	-2.2260762146094303e-05
3916.9	-3.0291028702304963e-05
3915.0	-2.9364027094196175e-05
3913.1	-2.306667803713272e-05
3911.1	-2.544923249354321e-05
3909.2	-3.3651059889868896e-05
3907.3	-2.998339749524882e-05
3905.3	-1.8999502948199268e-05
3903.4	-1.738758832415578e-05
3901.5	-1.8259358705716025e-05
3899.6	-1.8789074606500732e-05
3897.6	-2.6189040495102527e-05
3895.7	-3.307175576238973e-05
3893.8	-2.9840568198430796e-05
3891.8	-2.065576726280392e-05
3889.9	-1.5119501973588092e-05
3888.0	-1.4885775547000607e-05
3886.1	-1.9528137030359058e-05
3884.1	-2.7733989571658286e-05
3882.2	-3.760942936504067e-05
3880.3	-4.674137712587105e-05
3878.3	-4.843599239803126e-05
3876.4	-3.99823302957945e-05
3874.5	-2.8807294966132246e-05
3872.6	-2.3578080990205113e-05
3870.6	-2.6941849812387288e-05
3868.7	-3.819750012182645e-05
3866.8	-4.91665854490522e-05
3864.8	-4.6930627162418827e-05
3862.9	-3.5330125237561616e-05
3861.0	-3.174275132790795e-05
3859.1	-3.8710706105940225e-05
3857.1	-5.046275522635349e-05
3855.2	-6.598263242532047e-05
3853.3	-7.449105794064608e-05
3851.3	-6.653276643438406e-05
3849.4	-5.333811217776913e-05
3847.5	-4.787317869499528e-05
3845.6	-4.602795672725501e-05
3843.6	-4.214178158959121e-05
3841.7	-3.766551824959806e-05
3839.8	-3.614244919838234e-05
3837.8	-4.542463330247043e-05
3835.9	-6.319250523853601e-05
3834.0	-7.090728034696162e-05
3832.1	-6.493801471663162e-05
3830.1	-5.817408508357292e-05
3828.2	-5.9801861507723835e-05
3826.3	-6.304962233809265e-05
3824.3	-5.659452268407981e-05
3822.4	-5.069155011938999e-05
3820.5	-5.257536669752935e-05
3818.6	-4.952312752789828e-05
3816.6	-4.131869791920489e-05
3814.7	-3.9922835144486296e-05
3812.8	-4.8510301642220135e-05
3810.8	-5.742271819112138e-05
3808.9	-5.7408557087861196e-05
3807.0	-5.275070902977441e-05
3805.1	-5.1673393109497555e-05
3803.1	-5.5827703328297775e-05
3801.2	-6.145190780176379e-05
3799.3	-6.54768529798742e-05
3797.3	-6.79847083475463e-05
3795.4	-7.088792456507966e-05
3793.5	-7.349571658301252e-05
3791.6	-7.686738950343551e-05
3789.6	-7.997679937624873e-05
3787.7	-7.776743823400417e-05
3785.8	-7.072394620145212e-05
3783.8	-6.517974270259732e-05
3781.9	-6.537984016373466e-05
3780.0	-6.629387456751621e-05
3778.1	-6.212760099410359e-05
3776.1	-6.000792359046829e-05
3774.2	-6.633996881243604e-05
3772.3	-7.620501437551774e-05
3770.3	-8.02334876468009e-05
3768.4	-7.409900102334189e-05
3766.5	-6.54877150236343e-05
3764.6	-6.531127138053699e-05
3762.6	-7.32241411237269e-05
3760.7	-7.789921056478732e-05
3758.8	-7.441044783392626e-05
3756.8	-6.944218605331128e-05
3754.9	-6.981408800740688e-05
3753.0	-7.755789191559869e-05
3751.1	-9.348075629842596e-05
3749.1	-0.00010629063398469871
3747.2	-0.0001072209005409093
3745.3	-0.00010517978656010931
3743.3	-9.622390721699715e-05
3741.4	-7.618417718434757e-05
3739.5	-6.128464499780722e-05
3737.6	-5.9536708737390615e-05
3735.6	-6.593700112080339e-05
3733.7	-7.79727157545929e-05
3731.8	-8.88551873690364e-05
3729.8	-9.549793382388768e-05
3727.9	-0.00010063853126065982
3726.0	-9.796889527800785e-05
3724.1	-8.490933190390327e-05
3722.1	-7.840022903367273e-05
3720.2	-9.061127138053701e-05
3718.3	-0.00011040766531845422
3716.3	-0.00011810008284196674
3714.4	-0.000112650012182642
3712.5	-0.00010836581063301007
3710.6	-0.00010808280298231065
3708.6	-0.00010717534720530177
3706.7	-0.00010282409239315818
3704.8	-9.721290385458802e-05
3702.8	-9.615486087422644e-05
3700.9	-0.00010118131182690896
3699.0	-0.00010965115735100627
3697.1	-0.00011211169046342767
3695.1	-0.00010201458505920764
3693.2	-8.917209687637052e-05
3691.3	-8.896260903464741e-05
3689.3	-0.00010002815652258661
3687.4	-0.00010475950489742211
3685.5	-9.763405292139766e-05
3683.6	-9.11005993859948e-05
3681.6	-9.109439111154428e-05
3679.7	-9.017667267677005e-05
3677.8	-8.518477657034251e-05
3675.8	-8.689609668144816e-05
3673.9	-9.676034793626052e-05
3672.0	-0.00010658522976463155
3670.1	-0.00011100151064762922
3668.1	-0.00010857381219238826
3666.2	-0.00010385405194678624
3664.3	-0.00010124195701963841
3662.3	-9.950813313191363e-05
3660.4	-9.711382486233617e-05
3658.5	-9.391971151503334e-05
3656.6	-9.31847570781151e-05
3654.6	-0.00010154920325520193
3652.7	-0.00011218118512743046
3650.8	-0.00010821670971200223
3648.8	-9.795001705569894e-05
3646.9	-0.00010058982018420169
3645.0	-0.0001076845621558403
3643.1	-0.0001085887481116905
3641.1	-0.00010600818186248235
3639.2	-0.000103324915939769
3637.3	-0.00010493020320647144
3635.3	-0.00010816061595438821
3633.4	-0.0001060434140636421
3631.5	-0.00010214013449636958
3629.6	-9.80838555625944e-05
3627.6	-9.498951318161891e-05
3625.7	-9.582504751230438e-05
3623.8	-9.256936309146727e-05
3621.8	-8.651523317577107e-05
3619.9	-9.044757078115109e-05
3618.0	-0.0001006531163198675
3616.1	-0.00010552402904341894
3614.1	-0.00010765154719555585
3612.2	-0.00010717672140733877
3610.3	-0.0001038283465718046
3608.3	-0.00010495892013059796
3606.4	-0.0001092506408069782
3604.5	-0.00011083544174260508
3602.6	-0.00010968071244091415
3600.6	-0.00010662257199941521
3598.7	-0.00010638462550557963
3596.8	-0.00010994250767506461
3594.8	-0.00011192719653038352
3592.9	-0.00010808502996929978
3591.0	-0.00010136564494907653
3589.1	-0.00010030037522537898
3587.1	-0.00010473801471663183
3585.2	-0.0001077642220164709
3583.3	-0.00010521764046586421
3581.3	-9.3763218166756e-05
3579.4	-8.276357389990742e-05
3577.5	-8.651235319916183e-05
3575.6	-0.00010243915988499588
3573.6	-0.00011740569173042249
3571.7	-0.00011826082549583355
3569.8	-0.00010704296086935328
3567.8	-9.509371375663949e-05
3565.9	-8.763720578919157e-05
3564.0	-8.397424589444958e-05
3562.1	-8.104342868281268e-05
3560.1	-8.565207835875442e-05
3558.2	-9.837537644364311e-05
3556.3	-0.0001043053359972711
3554.3	-0.0001013496369572633
3552.4	-9.823747868037622e-05
3550.5	-0.00010111448759807026
3548.6	-0.00011171453632863893
3546.6	-0.00012095222455046052
3544.7	-0.00012058737390965355
3542.8	-0.00011246845670288971
3540.8	-0.00010212171434140635
3538.9	-9.05154573363871e-05
3537.0	-8.071164173285901e-05
3535.1	-8.10335656157107e-05
3533.1	-9.731785000730958e-05
3531.2	-0.00011770950733395057
3529.3	-0.00011676428536621022
3527.3	-9.395110862043756e-05
3525.4	-7.767969397202862e-05
3523.5	-8.503366307684808e-05
3521.6	-9.700467326153697e-05
3519.6	-9.003946688757858e-05
3517.7	-7.684816529408898e-05
3515.8	-7.739450319185225e-05
3513.8	-8.371820574046098e-05
3511.9	-8.358478631645631e-05
3510.0	-7.982069587252084e-05
3508.1	-7.938793918425029e-05
3506.1	-8.43112859997076e-05
3504.2	-8.868203791238244e-05
3502.3	-8.333534428146776e-05
3500.3	-7.51966375907607e-05
3498.4	-7.337084937381221e-05
3496.5	-6.961825447102968e-05
3494.6	-6.35109302665562e-05
3492.6	-6.279801179279763e-05
3490.7	-6.412308854344328e-05
3488.8	-6.62488767603918e-05
3486.8	-6.675167389503435e-05
3484.9	-6.162242580770919e-05
3483.0	-6.225553822913114e-05
3481.1	-6.941718727157545e-05
3479.1	-6.86317869499537e-05
3477.2	-6.518682325422738e-05
3475.3	-6.813280541883924e-05
3473.3	-7.029063885775547e-05
3471.4	-6.317288631158325e-05
3469.5	-5.7876394912528615e-05
3467.6	-6.7706710199308e-05
3465.6	-8.22662735734126e-05
3463.7	-8.637008917694068e-05
3461.8	-8.1234891087179e-05
3459.8	-7.189552166073779e-05
3457.9	-5.9702845865211254e-05
3456.0	-4.911190000487306e-05
3454.1	-4.940630573558793e-05
3452.1	-5.7747760830368896e-05
3450.2	-5.722827834900832e-05
3448.3	-4.659557039130645e-05
3446.3	-4.383529555089908e-05
3444.4	-5.290808440134496e-05
3442.5	-6.258819745626432e-05
3440.6	-6.96178012767409e-05
3438.6	-7.155264363335121e-05
3436.7	-6.195615223429658e-05
3434.8	-4.563666975293601e-05
3432.8	-3.2843993957409485e-05
3430.9	-2.951123726913893e-05
3429.0	-3.664607962574924e-05
3427.1	-4.04973003264948e-05
3425.1	-3.362552994493445e-05
3423.2	-2.5642264022221142e-05
3421.3	-2.029104332147557e-05
3419.3	-1.7871512109546303e-05
3417.4	-2.003316115199064e-05
3415.5	-2.6146742361483365e-05
3413.6	-3.526312070561863e-05
3411.6	-3.909587739388919e-05
3409.7	-3.098265191754788e-05
3407.8	-1.5106710199308021e-05
3405.8	-7.827259880122797e-06
3403.9	-1.3891706057209687e-05
3402.0	-1.962029140880074e-05
3400.1	-1.9686516251644665e-05
3398.1	-1.90447054237123e-05
3396.2	-1.8865610837678497e-05
3394.3	-1.7143331221675353e-05
3392.3	-9.320695872520846e-06
3390.4	4.950056040153988e-06
3388.5	1.8253564641099362e-05
3386.6	1.974939330441986e-05
3384.6	1.1263685980215391e-05
3382.7	8.323960820622773e-06
3380.8	1.3837186296964085e-05
3378.8	1.599293406754057e-05
3376.9	1.4195731202183134e-05
3375.0	1.7456006042590517e-05
3373.1	2.6877929925442226e-05
3371.1	3.3236781833244e-05
3369.2	3.109425953900881e-05
3367.3	2.542493055893963e-05
3365.3	2.2395326738463046e-05
3363.4	2.4388358267140968e-05
3361.5	3.311587641927782e-05
3359.6	4.254130890307491e-05
3357.6	4.279497100531164e-05
3355.7	3.5986272598801216e-05
3353.8	3.6172691389308515e-05
3351.8	4.9120759222260145e-05
3349.9	5.8610993616295513e-05
3348.0	5.097930412747915e-05
3346.1	3.7641001900492175e-05
3344.1	3.328352419472735e-05
3342.2	3.696190731445836e-05
3340.3	4.333922323473514e-05
3338.3	5.0514809219823574e-05
3336.4	5.773118756395889e-05
3334.5	6.352945762877054e-05
3332.6	6.623922323473514e-05
3330.6	6.810193947663369e-05
3328.7	6.600855221480436e-05
3326.8	5.679461527216023e-05
3324.8	5.4236781833244e-05
3322.9	6.354166463622631e-05
3321.0	7.440890794795573e-05
3319.1	8.112457482578822e-05
3317.1	8.009390380585743e-05
3315.2	7.64590614492471e-05
3313.3	7.967788119487356e-05
3311.3	8.446150285073829e-05
3309.4	8.29193362896545e-05
3307.5	7.73541786462648e-05
3305.6	7.38102821499927e-05
3303.6	7.637126845670288e-05
3301.7	8.000890794795574e-05
3299.8	7.996012864870134e-05
3297.8	8.152284489059988e-05
3295.9	8.888556113249842e-05
3294.0	9.768311973100726e-05
3292.1	0.00010053434043175284
3290.1	9.556257005019249e-05
3288.2	8.837442132449686e-05
3286.3	8.435560157887045e-05
3284.3	8.165768724721018e-05
3282.4	7.847650699283661e-05
3280.5	8.129497100531165e-05
3278.6	8.981969202280591e-05
3276.6	8.977543979338239e-05
3274.7	8.004619170605721e-05
3272.8	7.757930412747915e-05
3270.8	8.610473661127625e-05
3268.9	9.44928853369719e-05
3267.0	9.657442132449687e-05
3265.1	9.848418693046148e-05
3263.1	9.834517323717169e-05
3261.2	8.541521368354369e-05
3259.3	6.888769553140686e-05
3257.3	7.197167292042299e-05
3255.4	8.969222260123776e-05
3253.5	9.811068661371278e-05
3251.6	9.387167292042298e-05
3249.6	8.501872228448906e-05
3247.7	7.302360508747137e-05
3245.8	6.438143852638761e-05
3243.8	6.489954680571121e-05
3241.9	6.916679011744065e-05
3240.0	7.333194776083037e-05
3238.1	7.924135763364357e-05
3236.1	8.316470444910092e-05
3234.2	8.015320890794795e-05
3232.3	7.549293406754057e-05
3230.3	7.4811753813167e-05
3228.4	7.5763330247064e-05
3226.5	7.374766336923152e-05
3224.6	6.562014521709468e-05
3222.6	5.5794357000146196e-05
3220.7	4.9205496808147756e-05
3218.8	5.1688762730861066e-05
3216.8	6.489049266604942e-05
3214.9	7.618316846157595e-05
3213.0	7.940198820720237e-05
3211.1	7.735112323960821e-05
3209.1	7.091628088299791e-05
3207.2	6.546506018225233e-05
3205.3	6.061663661614931e-05
3203.3	4.775951464353589e-05
3201.4	3.2562667511329865e-05
3199.5	3.089054139661809e-05
3197.6	4.05947127332976e-05
3195.6	4.5597154134788744e-05
3193.7	4.380727547390478e-05
3191.8	3.923377515715608e-05
3189.8	2.717629745139126e-05
3187.9	9.067243311729447e-06
3186.0	-2.881535987524974e-06
3184.1	-4.630719750499482e-07
3182.1	7.280824521222164e-06
3180.2	9.401729935188345e-06
3178.3	9.483265922713319e-06
3176.3	1.0465157643389698e-05
3174.4	8.184688855318939e-06
3172.5	2.5756347156571334e-06
3170.6	8.700404463720089e-07
3168.6	5.896847132206035e-06
3166.7	9.5431850299693e-06
3164.8	4.4696847132206035e-06
3162.8	-6.357121972613422e-06
3160.9	-1.3784640124750255e-05
3159.0	-1.4670703182106136e-05
3157.1	-1.3898577067394373e-05
3155.1	-1.1266531845426637e-05
3153.2	-6.374567516202915e-06
3151.3	-7.288504458847035e-06
3149.3	-1.4556766239462014e-05
3147.4	-1.9622942351737248e-05
3145.5	-2.057869012231373e-05
3143.6	-1.9581487256956294e-05
3141.6	-1.4296135665903221e-05
3139.7	-1.0917752546172216e-05
3137.8	-1.890137420203694e-05
3135.8	-3.547034744895473e-05
3133.9	-4.925569904000779e-05
3132.0	-4.794837483553434e-05
3130.1	-3.461388821207544e-05
3128.1	-2.5389522927732566e-05
3126.2	-2.0902085668339753e-05
3124.3	-1.8662716241898543e-05
3122.3	-2.6732400955119147e-05
3120.4	-4.5625076750645686e-05
3118.5	-5.9901374202036946e-05
3116.6	-5.404806783295161e-05
3114.6	-3.5627518152136834e-05
3112.7	-2.8299288533697187e-05
3110.8	-3.6270703182106134e-05
3108.8	-4.2870347448954734e-05
3106.9	-4.176337897763267e-05
3105.0	-4.417034744895473e-05
3103.1	-5.639786560109157e-05
3101.1	-6.482294235173725e-05
3099.2	-6.122294235173724e-05
3097.3	-5.7137235027532774e-05
3095.3	-5.7527825154719557e-05
3093.4	-5.528565859363579e-05
3091.5	-4.91511719701769e-05
3089.6	-4.1044914965157644e-05
3087.6	-3.259649139905463e-05
3085.7	-2.816200477559573e-05
3083.8	-3.0164801910238294e-05
3081.8	-3.4151220700745574e-05
3079.9	-3.280696847132206e-05
3078.0	-2.989440573071488e-05
3076.1	-3.400274840407388e-05
3074.1	-4.15212124165489e-05
3072.2	-4.533306369085327e-05
3070.3	-4.79821987232591e-05
3068.3	-4.84735003167487e-05
3066.4	-4.688082452122217e-05
3064.5	-4.668743725939282e-05
3062.6	-4.733341942400468e-05
3060.6	-4.3724009551191466e-05
3058.7	-3.806617611227523e-05
3056.8	-3.7017752546172217e-05
3054.8	-3.6280824521222164e-05
3052.9	-3.052263534915452e-05
3051.0	-2.60780273865796e-05
3049.1	-2.6080113054919353e-05
3047.1	-2.6080468788070755e-05
3045.2	-2.9471414648408944e-05
3043.3	-3.8205901271867844e-05
3041.3	-4.22473563666488e-05
3039.4	-3.8226450952682615e-05
3037.5	-3.00386579601384e-05
3035.6	-1.865366210223673e-05
3033.6	-8.91256274060718e-06
3031.7	-4.082247453827783e-06
3029.8	8.362165586472389e-08
3027.8	5.763427708201357e-06
3025.9	6.99618439647191e-06
3024.0	3.431026753082207e-06
3022.1	5.967954778032259e-06
3020.1	1.3116022610983872e-05
3018.2	1.3908342673358998e-05
3016.3	6.917752546172217e-06
3014.3	1.8344866234588952e-06
3012.4	6.992675795526534e-06
3010.5	1.4415666877832466e-05
3008.6	1.437594171823985e-05
3006.6	1.2964446177086886e-05
3004.7	1.292299108230593e-05
3002.8	1.2490590127186786e-05
3000.8	1.4074211783051509e-05
2998.9	1.747421178305151e-05
2997.0	2.0539369426441208e-05
2995.1	1.973936942644121e-05
2993.1	1.6262716241898542e-05
2991.2	1.7544252229423518e-05
2989.3	2.2965157643389697e-05
2987.3	2.524877929925442e-05
2985.4	2.337212611471176e-05
2983.5	2.1051576433896986e-05
2981.6	2.6726143950099895e-05
2979.6	3.736307197504995e-05
2977.7	3.99651576433897e-05
2975.8	3.827421178305151e-05
2973.8	4.328535159105307e-05
2971.9	5.084562643146045e-05
2970.0	5.4455036304273674e-05
2968.1	5.665468057112226e-05
2966.1	5.890030700258272e-05
2964.2	5.702746942156815e-05
2962.3	5.275534330685639e-05
2960.3	5.217696018712538e-05
2958.4	5.459404999756347e-05
2956.5	5.557558598508845e-05
2954.6	5.7360937576141514e-05
2952.6	6.57208566833975e-05
2950.7	7.701877101505775e-05
2948.8	8.046790604746356e-05
2946.8	7.360971687539594e-05
2944.9	6.612121241654891e-05
2943.0	6.484176209736368e-05
2941.1	6.861073534428147e-05
2939.1	7.661943375079188e-05
2937.2	8.551734808245213e-05
2935.3	9.018321719214464e-05
2933.3	9.044176209736367e-05
2931.4	8.820447833926221e-05
2929.5	8.686231177817845e-05
2927.6	8.756892451634911e-05
2925.6	8.758982993031529e-05
2923.7	8.777380731933141e-05
2921.8	9.316892451634911e-05
2919.8	0.00010027482578821695
2917.9	0.00010149222260123777
2916.0	9.890824521222163e-05
2914.1	9.943230349398178e-05
2912.1	9.89030554066566e-05
2910.2	9.572431655377418e-05
2908.3	9.613825349641831e-05
2906.3	9.562223088543444e-05
2904.4	9.32640417133668e-05
2902.5	9.726124457872423e-05
2900.6	0.00010396368598021539
2898.6	0.00010302467228692559
2896.7	9.515290190536524e-05
2894.8	8.966475317966961e-05
2892.8	9.462258661858584e-05
2890.9	0.0001051727401198772
2889.0	0.00011096750158374349
2887.1	0.00011137935285804785
2885.1	0.00011041210954631841
2883.2	0.0001054075824764875
2881.3	9.397797865601091e-05
2879.3	8.479715413478875e-05
2877.4	8.697589298767115e-05
2875.5	9.52079382096389e-05
2873.6	9.988250572584182e-05
2871.6	9.969191559865503e-05
2869.7	9.898911846401248e-05
2867.8	9.968876273086107e-05
2865.8	0.00010102848789045369
2863.9	0.00010308703279567272
2862.0	0.0001072291993567565
2860.1	0.00011271770381560352
2858.1	0.00012025707324204474
2856.2	0.00012649155986550363
2854.3	0.00012797029871838606
2852.3	0.00012563998343160664
2850.4	0.00012083057355879343
2848.5	0.00011448143852638761
2846.6	0.00010717899712489647
2844.6	0.00010031419521465816
2842.7	0.00010168423566103018
2840.8	0.00011218632132936992
2838.8	0.00011887655572340527
2836.9	0.00011523927196530385
2835.0	0.00010992777642415088
2833.1	0.00010836958725208323
2831.1	0.00010841836655133765
2829.2	0.00010620478534184494
2827.3	0.0001046030554066566
2825.3	0.00010471978948394328
2823.4	0.00010508042005750206
2821.5	0.00010623128502509624
2819.6	0.00010693545636177574
2817.6	0.00011076297451391258
2815.7	0.0001207159251498465
2813.8	0.00012573403342917014
2811.8	0.00012104100190049217
2809.9	0.00011686434871594952
2808.0	0.00012047792992544222
2806.1	0.00012513123629452757
2804.1	0.00012286679011744064
2802.2	0.00011892569075581112
2800.3	0.0001185769114565567
2798.3	0.00011765809171093026
2796.4	0.00011473510062862433
2794.5	0.00011172396082062279
2792.6	0.0001106378977632669
2790.6	0.0001143121095463184
2788.7	0.000119463330247064
2786.8	0.00012047029871838605
2784.8	0.00011745844744408168
2782.9	0.00011270931241167586
2781.0	0.00010947202865357438
2779.1	0.00011225600604259053
2777.1	0.0001201514789727596
2775.2	0.00012662777642415086
2773.3	0.00012652950635933923
2771.3	0.00012008769553140686
2769.4	0.00011416958725208324
2767.5	0.00011454415476828617
2765.6	0.00011759049266604941
2763.6	0.00011845565030943911
2761.7	0.00011778840699770965
2759.8	0.00011792533502265974
2757.8	0.00011921312801520395
2755.9	0.0001230803713269334
2754.0	0.00012468525412991568
2752.1	0.00012155529457628772
2750.1	0.00012158560986306709
2748.2	0.0001265807270600848
2746.3	0.00012870615954388187
2744.3	0.00012297167292042298
2742.4	0.00011406994298523464
2740.5	0.00011192813215730229
2738.6	0.00011608560986306711
2736.6	0.0001191594659129672
2734.7	0.00012185946591296721
2732.8	0.0001281848983967643
2730.8	0.0001328193850202232
2728.9	0.00013155666877832464
2727.0	0.00012743611909750988
2725.1	0.0001234246235563569
2723.1	0.00011813403342917012
2721.2	0.0001114507675064568
2719.3	0.00010646750158374349
2717.3	0.00010662569075581111
2715.4	0.0001119023439403538
2713.5	0.00011770931241167587
2711.6	0.00011788840699770967
2709.6	0.00011174903757126846
2707.7	0.00010541907801764047
2705.8	0.000104663330247064
2703.8	0.00010914451050143756
2701.9	0.00011714868183811705
2700.0	0.00012256679011744066
2698.1	0.00012034797037181425
2696.1	0.00011603159202767897
2694.2	0.00011597340285561135
2692.3	0.00011829919107255983
2690.3	0.00012012742069099948
2688.4	0.00011920198820720237
2686.5	0.0001179110423468642
2684.6	0.00012080824521222162
2682.6	0.0001254197407533746
2680.7	0.00012604797037181427
2678.8	0.00012300651527703328
2676.8	0.0001206462404366259
2674.9	0.00011992742069099948
2673.0	0.00011884552897032307
2671.1	0.0001162591101798158
2669.1	0.00011417757419229083
2667.2	0.0001138193850202232
2665.3	0.00011473332196286728
2663.3	0.00011398698406510404
2661.4	0.00011381521368354369
2659.5	0.00011693647483066127
2657.6	0.00011778805126455826
2655.6	0.00011402324935431995
2653.7	0.00011057238438672579
2651.8	0.00010897274011987721
2649.8	0.00010791663661614931
2647.9	0.00010718316846157594
2646.0	0.00010796643438428928
2644.1	0.00010787375858876274
2642.1	0.00010553683056381267
2640.2	0.00010332253788801717
2638.3	0.00010158733979825545
2636.3	0.0001014504117733054
2634.4	0.00010036261878076117
2632.5	9.832116368598023e-05
2630.6	9.999120413235223e-05
2628.6	0.0001051330149602846
2626.7	0.00010990687101018469
2624.8	0.00011188072706008479
2622.8	0.0001103246235563569
2620.9	0.00010790127674089959
2619.0	0.00010580163247405096
2617.1	0.00010403474489547294
2615.1	0.00010384868183811705
2613.2	0.00010418525412991569
2611.3	0.00010139639393791727
2609.3	9.63594659129672e-05
2607.4	9.440442960869354e-05
2605.5	9.440966814482725e-05
2603.6	9.296333024706399e-05
2601.6	9.678876273086108e-05
2599.7	0.00010937202865357438
2597.8	0.00011794135763364358
2595.8	0.00011206470444910093
2593.9	0.00010209293406754057
2592.0	0.00010132289362116856
2590.1	0.00010192009648652599
2588.1	9.76504117733054e-05
2586.2	9.507167292042298e-05
2584.3	9.545112323960821e-05
2582.3	9.668876273086108e-05
2580.4	9.579364553384339e-05
2578.5	9.040305540665661e-05
2576.6	8.617518152136835e-05
2574.6	8.733092929194485e-05
2572.7	8.914486623458895e-05
2570.8	9.112151941913162e-05
2568.8	9.311455094780955e-05
2566.9	9.120549680814775e-05
2565.0	8.548459139418157e-05
2563.1	8.289120413235222e-05
2561.1	8.485147897275961e-05
2559.2	8.599364553384338e-05
2557.3	8.47382534964183e-05
2555.3	8.248494712733297e-05
2553.4	8.007797865601093e-05
2551.5	8.07291993567565e-05
2549.6	8.246195604502705e-05
2547.6	8.0825028020077e-05
2545.7	7.631353247892402e-05
2543.8	7.450620827445056e-05
2541.8	7.92940012669948e-05
2539.9	8.527518152136836e-05
2538.0	8.57940012669948e-05
2536.1	8.474069489790946e-05
2534.1	8.663581209492715e-05
2532.2	8.798423566103018e-05
2530.3	8.720722674333611e-05
2528.3	8.519573120218313e-05
2526.4	8.013581209492714e-05
2524.5	7.40988840699771e-05
2522.6	7.016160031187564e-05
2520.6	6.911978948394327e-05
2518.7	6.862223088543444e-05
2516.8	6.356439744651819e-05
2514.8	5.7665108912821013e-05
2512.9	5.953062228936212e-05
2511.0	6.47511719701769e-05
2509.1	6.458321719214464e-05
2507.1	6.142014521709469e-05
2505.2	6.0152546172213836e-05
2503.3	6.0075892987671164e-05
2501.3	5.869018566346669e-05
2499.4	5.704628916719458e-05
2497.5	5.797660445397398e-05
2495.6	5.755814044149896e-05
2493.6	5.319786560109156e-05
2491.7	5.214664490034599e-05
2489.8	6.0425383753228405e-05
2487.8	6.619054139661809e-05
2485.9	5.933062228936212e-05
2484.0	5.199125286292091e-05
2482.1	5.457940158861655e-05
2480.1	5.93818429901077e-05
2478.2	6.155885190780176e-05
2476.3	6.387975732176795e-05
2474.3	6.271007260854734e-05
2472.4	5.336409044393548e-05
2470.5	4.5157477705764826e-05
2468.6	4.2699288533697185e-05
2466.6	3.8755036304273665e-05
2464.7	3.939893280054578e-05
2462.8	4.7361293309292926e-05
2460.8	5.0226450952682615e-05
2458.9	4.627558598508845e-05
2457.0	4.5954680571122266e-05
2455.1	5.061495541152965e-05
2453.1	5.134282929681789e-05
2451.2	5.309404999756347e-05
2449.3	6.0507986940207594e-05
2447.3	6.057558598508845e-05
2445.4	4.779476146386628e-05
2443.5	3.384181082793236e-05
2441.6	2.944877929925442e-05
2439.6	3.390208566833975e-05
2437.7	3.681149554115297e-05
2435.8	3.420940987281322e-05
2433.8	3.35606305735588e-05
2431.9	4.0020905413966186e-05
2430.0	4.984145509478096e-05
2428.1	5.271566687783246e-05
2426.1	4.490208566833975e-05
2424.2	3.699338726182935e-05
2422.3	3.7970396179523416e-05
2420.3	4.0691301593489597e-05
2418.4	4.129338726182935e-05
2416.5	4.279755859850884e-05
2414.6	4.20390136932898e-05
2412.6	3.705783343891624e-05
2410.7	3.2514292675795526e-05
2408.8	3.036342770820136e-05
2406.8	2.9123702548608734e-05
2404.9	3.0220905413966178e-05
2403.0	3.3808698406510405e-05
2401.1	3.547594171823985e-05
2399.1	3.298814872569563e-05
2397.2	2.9898270064811657e-05
2395.3	2.6268310511183663e-05
2393.3	2.2021616880268992e-05
2391.4	2.108433312216753e-05
2389.5	2.3158900638370453e-05
2387.6	2.4270751912674817e-05
2385.6	2.3075634715657127e-05
2383.7	2.0503508600945366e-05
2381.8	2.0995828663320503e-05
2379.8	2.3955392037425076e-05
2377.9	2.4099288533697187e-05
2376.0	2.093413089030749e-05
2374.1	1.6217396813020807e-05
2372.1	1.3095424199600413e-05
2370.2	1.1871010184688862e-05
2368.3	7.570298718386043e-06
2366.3	-1.109151600799174e-06
2364.4	-8.918917206763812e-06
2362.5	-1.1437736952390231e-05
2360.6	-9.69557039130646e-06
2358.6	-4.048876760391792e-06
2356.7	2.5814385263876147e-06
2354.8	3.821875152283029e-06
2352.8	8.515277033282994e-07
2350.9	2.693289800691973e-07
2349.0	6.743896496272112e-06
2347.1	1.6345270698309048e-05
2345.1	1.8346644900345985e-05
2343.2	1.156928024950051e-05
2341.3	5.917703815603533e-06
2339.3	2.999239803128502e-06
2337.4	-1.6094586033819046e-06
2335.5	-5.597607329077526e-06
2333.6	-6.21642707470396e-06
2331.6	-5.386111787924565e-06
2329.7	-3.6599678378246677e-06
2327.8	-3.7289410847424595e-06
2325.8	-5.88886019199844e-06
2323.9	-9.323346815457336e-06
2322.0	-1.2313581209492713e-05
2320.1	-1.0480824521222163e-05
2318.1	-4.292320062375128e-06
2316.2	-8.337751571560844e-07
2314.3	-1.6518834364797e-06
2312.3	-2.8933385312606558e-06
2310.4	-1.1163296135665883e-06
2308.5	3.779143316602508e-06
2306.6	7.928278349008328e-06
2304.6	6.096233127040605e-06
2302.7	-2.8947419716387953e-07
2300.8	-4.426757955265332e-06
2298.8	-2.150460503874086e-06
2296.9	7.749719799230104e-07
2295.0	2.054422299108237e-06
2293.1	8.054422299108234e-06
2291.1	1.4007372935042158e-05
2289.2	1.1423395546026023e-05
2287.3	4.014341406364218e-06
2285.3	-4.61956045027048e-07
2283.4	1.1826519175478682e-06
2281.5	9.463832171921447e-06
2279.6	1.7939773890161297e-05
2277.6	1.7816071341552556e-05
2275.7	9.97914331660251e-06
2273.8	1.3192242093465153e-06
2271.8	-4.996798401637349e-06
2269.9	-8.501325471468257e-06
2268.0	-1.032884362360509e-05
2266.1	-1.168667706252132e-05
2264.1	-9.647307636080114e-06
2262.2	-4.594001266994793e-06
2260.3	-3.4169923493007303e-06
2258.3	-6.944510501437557e-06
2256.4	-1.3018722284489051e-05
2254.5	-1.810931241167586e-05
2252.6	-1.6853564641099362e-05
2250.6	-1.1472384386725792e-05
2248.7	-1.1462974513912593e-05
2246.8	-1.7560177379270012e-05
2244.8	-1.7871672920422982e-05
2242.9	-1.074659616977731e-05
2241.0	-6.172740119877197e-06
2239.1	-4.963685980215387e-06
2237.1	-2.7661273817065557e-06
2235.2	-3.131285025096245e-06
2233.3	-9.014906680960975e-06
2231.3	-1.826577164855514e-05
2229.4	-2.472116368598022e-05
2227.5	-2.129084839920082e-05
2225.6	-1.2565771648555138e-05
2223.6	-1.0287388528824136e-05
2221.7	-1.1943492032552022e-05
2219.8	-1.035951464353589e-05
2217.8	-7.93128502509624e-06
2215.9	-5.838253496418315e-06
2214.0	-3.6167828078553354e-08
2212.1	2.9195799424979387e-06
2210.1	-3.966127381706551e-06
2208.2	-1.0598528336825687e-05
2206.3	-6.747663369231516e-06
2204.3	-3.1685687831976996e-06
2202.4	-9.167857316894887e-06
2200.5	-1.573927196530384e-05
2198.6	-1.5601988207202376e-05
2196.6	-1.3448681838117038e-05
2194.7	-1.3148681838117044e-05
2192.8	-1.4578641391745042e-05
2190.8	-1.466434871594953e-05
2188.9	-1.3303718142390733e-05
2187.0	-1.3299191072559829e-05
2185.1	-1.2604429608693533e-05
2183.1	-1.1302699673505197e-05
2181.2	-1.0856361775741925e-05
2179.3	-9.619078017640468e-06
2177.3	-9.262974513912587e-06
2175.4	-1.1206871010184687e-05
2173.5	-9.98840699770965e-06
2171.6	-5.395731202183137e-06
2169.6	-4.256361775741927e-06
2167.7	-6.92848789045369e-06
2165.8	-8.968213050046287e-06
2163.8	-6.724316553774179e-06
2161.9	1.222021343989079e-06
2160.0	1.0756507967447975e-05
2158.1	1.612792261585692e-05
2156.1	1.683244968568783e-05
2154.2	1.2247098094634764e-05
2152.3	3.512967204327286e-06
2150.3	-2.135812094927152e-06
2148.4	-1.1898299303152927e-06
2146.5	2.8458652112525957e-09
2144.6	-1.7574289751961483e-06
2142.6	-1.7919155986550366e-06
2140.7	9.453681594464089e-07
2138.8	4.76347643877005e-06
2136.8	9.232805418839237e-06
2134.9	1.3030719750499491e-05
2133.0	1.2461390770430298e-05
2131.1	7.447453827786174e-06
2129.1	3.8098143365333087e-06
2127.2	5.323039812874615e-06
2125.3	9.345675162029145e-06
2123.3	1.157599044880854e-05
2121.4	1.2595165927586372e-05
2119.5	1.4402490132059839e-05
2117.6	1.6013985673212813e-05
2115.6	1.663906242385849e-05
2113.7	1.8610477072267426e-05
2111.8	2.3872837581014573e-05
2109.8	2.6335909556064517e-05
2107.9	2.3443589493689386e-05
2106.0	2.2297251595926117e-05
2104.1	2.3052643633351205e-05
2102.1	2.067563471565713e-05
2100.2	1.7619886945080652e-05
2098.3	1.823138248623362e-05
2096.3	2.0726143950099898e-05
2094.4	2.2041099361629548e-05
2092.5	2.3451834705911022e-05
2090.6	2.4538463037863695e-05
2088.6	2.856232639734905e-05
2086.7	3.906116173675746e-05
2084.8	4.5404751230446855e-05
2082.8	4.160454168900148e-05
2080.9	3.2741260172506224e-05
2079.0	1.6113128015203946e-05
2077.1	-1.7448828029823103e-05
2075.1	-5.67651576433897e-05
2073.2	-7.59128697431899e-05
2071.3	-6.785432483797086e-05
2069.3	-3.912365381804006e-05
2067.4	4.393080259246626e-06
2065.5	5.6193435992398016e-05
2063.6	0.00011706103503727887
2061.6	0.00018710945860338186
2059.7	0.0002518366210223674
2057.8	0.0002978129184737586
2055.8	0.00032699409872813216
2053.9	0.0003465191754787778
2052.0	0.00035792299108230595
2050.1	0.00035704562643146053
2048.1	0.0003397944057307149
2046.2	0.0003110201939476634
2044.3	0.0002784341308903075
2042.3	0.0002465104283416987
2040.4	0.0002193031041372253
2038.5	0.00019817767165342817
2036.6	0.0001812034598703767
2034.6	0.00016724527069830904
2032.7	0.00015334979776813996
2030.8	0.00013740101846888554
2028.8	0.00012462680668583404
2026.9	0.00011731531114468106
2025.0	0.00011189893280054578
2023.1	0.00010552889235417377
2021.1	9.595849617465035e-05
2019.2	8.520864967594172e-05
2017.3	7.904313629940061e-05
2015.3	7.941597388041519e-05
2013.4	8.200971687539594e-05
2011.5	8.221668534671799e-05
2009.6	8.109333853126066e-05
2007.6	8.153759076068418e-05
2005.7	8.180971687539595e-05
2003.8	8.354664490034599e-05
2001.8	8.87295550899079e-05
1999.9	8.973581209492716e-05
1998.0	8.083372642658741e-05
1996.1	7.141770381560353e-05
1994.1	7.010234394035379e-05
1992.2	7.344273183568054e-05
1990.3	7.84504117733054e-05
1988.3	8.487518152136835e-05
1986.4	8.908077579065349e-05
1984.5	8.77860143267872e-05
1982.6	8.306302324448126e-05
1980.6	7.512365381804007e-05
1978.7	6.681180254373569e-05
1976.8	6.534593343404319e-05
1974.8	7.159888406997711e-05
1972.9	7.805463184055359e-05
1971.0	7.906821305004628e-05
1969.1	7.738805126455826e-05
1967.1	7.792950635933923e-05
1965.2	8.061907801764048e-05
1963.3	8.560620827445056e-05
1961.4	9.053408215973881e-05
1959.4	8.95943570001462e-05
1957.5	8.360132547146826e-05
1955.6	7.82037668729594e-05
1953.6	7.928077579065349e-05
1951.7	8.681353247892403e-05
1949.8	9.217624872082258e-05
1947.9	9.201246527946983e-05
1945.9	9.07981238731056e-05
1944.0	8.743917450416646e-05
1942.1	8.283708883582672e-05
1940.1	8.310824521222163e-05
1938.2	8.63901856634667e-05
1936.3	8.703270795770186e-05
1934.4	8.780936114224453e-05
1932.4	9.119750986794016e-05
1930.5	9.466231177817844e-05
1928.6	9.568530286048439e-05
1926.6	9.407029871838604e-05
1924.7	9.335595731202184e-05
1922.8	9.578134106525023e-05
1920.9	9.883912577359779e-05
1918.9	9.985438818771016e-05
1917.0	9.73258515666878e-05
1915.1	9.393469616490426e-05
1913.1	9.349155986550362e-05
1911.2	9.509537546903172e-05
1909.3	9.628316846157595e-05
1907.4	9.669120413235223e-05
1905.4	9.267624872082259e-05
1903.5	8.55212124165489e-05
1901.6	8.639822133424296e-05
1899.6	9.464664490034599e-05
1897.7	9.96640417133668e-05
1895.8	0.00010271175381316701
1893.9	0.00010613474489547294
1891.9	0.00010426119584815556
1890.0	9.423851176843233e-05
1888.1	7.710163247405096e-05
1886.1	4.9523346815457334e-05
1884.2	1.0392773256663891e-05
1882.3	-3.0169182788363156e-05
1880.4	-5.53231518931826e-05
1878.4	-5.5934647434335564e-05
1876.5	-3.952386335948539e-05
1874.6	-1.630473661127626e-05
1872.6	1.0135198089761706e-05
1870.7	3.618129233468155e-05
1868.8	5.833724964670342e-05
1866.9	7.746104965644948e-05
1864.9	9.454135763364358e-05
1863.0	0.00010780971687539594
1861.1	0.00011782365381804007
1859.1	0.00012379542419960042
1857.2	0.00011954944203498854
1855.3	0.00010732960382047659
1853.4	9.780696847132206e-05
1851.4	9.610137420203693e-05
1849.5	9.713474489547294e-05
1847.6	9.368226207299842e-05
1845.6	8.797601968714972e-05
1843.7	8.743416012864868e-05
1841.8	9.362646557185326e-05
1839.9	9.896506018225231e-05
1837.9	9.824908630183716e-05
1836.0	9.68257394863798e-05
1834.1	9.886714585059208e-05
1832.1	9.922966717021586e-05
1830.2	9.560475123044683e-05
1828.3	9.407758881146142e-05
1826.4	9.675815506066956e-05
1824.4	9.5065220993129e-05
1822.5	8.755214170849374e-05
1820.6	8.370590127186783e-05
1818.6	8.40644461770869e-05
1816.7	8.35132254763413e-05
1814.8	8.167523025193704e-05
1812.9	7.829990253886262e-05
1810.9	7.799288533697189e-05
1809.0	8.168316846157594e-05
1807.1	8.131877101505774e-05
1805.1	7.513164075824766e-05
1803.2	6.905311144681057e-05
1801.3	6.805647385604993e-05
1799.4	7.449238341211443e-05
1797.4	8.38279859655962e-05
1795.5	8.869645728765659e-05
1793.6	8.928670630086258e-05
1791.6	8.732048145801852e-05
1789.7	8.279889868914765e-05
1787.8	8.002284489059988e-05
1785.9	8.106185858388967e-05
1783.9	7.914685444179132e-05
1782.0	6.92974124068028e-05
1780.1	5.789954680571121e-05
1778.1	5.457482578821695e-05
1776.2	5.762687003557334e-05
1774.3	5.934271234345304e-05
1772.4	6.133296135665898e-05
1770.4	6.510701232883393e-05
1768.5	6.632968178938651e-05
1766.6	6.344391111544272e-05
1764.6	6.110077481604213e-05
1762.7	6.245149359193023e-05
1760.8	6.149920569173051e-05
1758.9	5.3539384045611844e-05
1756.9	4.900947322255254e-05
1755.0	5.54822620729984e-05
1753.1	6.198964962721122e-05
1751.1	6.172348813410656e-05
1749.2	6.138350470249982e-05
1747.3	6.477545441255304e-05
1745.4	6.714497831489697e-05
1743.4	6.563170410798689e-05
1741.5	6.169910823059313e-05
1739.6	5.7787159495151306e-05
1737.6	5.588452317138536e-05
1735.7	5.5522854636713736e-05
1733.8	5.441829345548461e-05
1731.9	5.298026899273921e-05
1729.9	5.2062633399931806e-05
1728.0	5.1334793626041614e-05
1726.1	5.3090994590906875e-05
1724.1	5.9996895862774724e-05
1722.2	6.658693533453537e-05
1720.3	6.341656839335311e-05
1718.4	5.1924794113347196e-05
1716.4	4.4681204619658e-05
1714.5	4.7087529847473423e-05
1712.6	5.078088787096151e-05
1710.6	5.255742897519615e-05
1708.7	5.4565318454266365e-05
1706.8	5.468526874908628e-05
1704.9	5.2626124457872455e-05
1702.9	5.194182057404622e-05
1701.0	5.469211539398653e-05
1699.1	6.179390867891454e-05
1697.1	6.786099117976727e-05
1695.2	7.022007212124167e-05
1693.3	7.31053798547829e-05
1691.4	7.340530188587302e-05
1689.4	6.70107986940208e-05
1687.5	5.6928531747965356e-05
1685.6	4.766860776765267e-05
1683.6	4.4413166999658985e-05
1681.7	4.53539155011941e-05
1679.8	4.3978349008332886e-05
1677.9	3.9674080210516085e-05
1675.9	3.436570342575901e-05
1674.0	2.991478972759617e-05
1672.1	2.9991135909556007e-05
1670.1	3.1026592271331884e-05
1668.2	2.820069197407546e-05
1666.3	2.6521631499439572e-05
1664.4	3.1605608888455694e-05
1662.4	3.7349100921007714e-05
1660.5	3.8531187563958886e-05
1658.6	3.8731592027678975e-05
1656.6	3.7815403732761594e-05
1654.7	2.9546099117976716e-05
1652.8	2.1404317528386004e-05
1650.9	2.4332293747868217e-05
1648.9	2.8051327907996837e-05
1647.0	2.4941918035183467e-05
1645.1	2.905894449588232e-05
1643.1	3.924253691340576e-05
1641.2	3.9786725793090004e-05
1639.3	3.4608664295112345e-05
1637.4	3.1164295112323984e-05
1635.4	2.8717616100579994e-05
1633.5	2.9382033039325505e-05
1631.6	3.2641971638809044e-05
1629.6	3.367553725451977e-05
1627.7	3.378795380342091e-05
1625.8	3.435398372399003e-05
1623.9	3.1617620973636775e-05
1621.9	2.9641420983382902e-05
1620.0	3.254167925539691e-05
1618.1	3.518885531894156e-05
1616.1	3.335946103991041e-05
1614.2	2.9121080844013512e-05
1612.3	2.7918464012475025e-05
1610.4	3.144745382778617e-05
1608.4	3.2352999366502615e-05
1606.5	2.8958593635787733e-05
1604.6	2.8433872618293457e-05
1602.6	3.168509331903904e-05
1600.7	3.350915160079918e-05
1598.8	3.4493840456118136e-05
1596.9	3.608443058330491e-05
1594.9	3.715131816188296e-05
1593.0	3.621891720676381e-05
1591.1	3.062207007455776e-05
1589.1	2.2564948101944348e-05
1587.2	1.6354164027094194e-05
1585.3	1.1317236002144124e-05
1583.4	8.81479460065299e-06
1581.4	9.939466887578587e-06
1579.5	8.938672579309034e-06
1577.6	2.5413527605866936e-06
1575.6	1.0526533794648742e-06
1573.7	6.748711076458292e-06
1571.8	8.533643584620677e-06
1569.9	6.115744846742395e-06
1567.9	8.336440719263177e-06
1566.0	1.5089635008040566e-05
1564.1	1.868176014814093e-05
1562.1	1.4925198577067167e-05
1560.2	5.916977730129839e-06
1558.3	0.0
1556.4	-2.2514253691340025e-06
1554.4	-2.8778714487599213e-06
1552.5	2.0512499390867725e-06
1550.6	7.427839773890138e-06
1548.6	8.895487549339634e-06
1546.7	1.1371541347887507e-05
1544.8	1.4380317723307768e-05
1542.9	9.748672092003323e-06
1540.9	-4.0420837191168166e-06
1539.0	-1.338812923346814e-05
1537.1	-1.1139198869450492e-05
1535.1	-7.401588616539061e-06
1533.2	-3.869752936016689e-06
1531.3	5.733950587203307e-06
1529.4	1.5242034988548355e-05
1527.4	1.7350134009063952e-05
1525.5	1.4017343209395215e-05
1523.6	5.064875006091608e-06
1521.6	-6.491974075337279e-06
1519.7	-4.702514497343909e-06
1517.8	9.405701476536237e-06
1515.9	1.7121758198918404e-05
1513.9	1.801778178451343e-05
1512.0	1.9947336874421293e-05
1510.1	1.9043599239803232e-05
1508.1	1.0984030992641737e-05
1506.2	1.198742751327888e-06
1504.3	3.798036158082123e-06
1502.4	1.6735276058671563e-05
1500.4	2.106843721066227e-05
1498.5	1.4014336533307316e-05
1496.6	7.274465182008729e-06
1494.6	4.543472540324497e-06
1492.7	5.124896447541538e-06
1490.8	8.59509770479019e-06
1488.9	1.2242405340870443e-05
1486.9	1.3171945811607663e-05
1485.0	1.1776458262267913e-05
1483.1	1.0774518785634225e-05
1481.1	9.151171970176896e-06
1479.2	7.240953169923488e-06
1477.3	9.264670337702865e-06
1475.4	1.0601062326397247e-05
1473.4	5.726816431947607e-06
1471.5	8.985234637687951e-07
1469.6	1.233643584620716e-06
1467.6	1.4080502899468733e-06
1465.7	-1.2590322109059084e-06
1463.8	-1.8771404902294853e-06
1461.9	2.328809512207059e-06
1459.9	5.609712002339093e-06
1458.0	3.253394084108815e-06
1456.1	-4.161512596852256e-06
1454.1	-2.301313288826084e-05
1452.2	-3.714241021392719e-05
1450.3	-1.7894956386141006e-05
1448.4	1.0423765898348017e-05
1446.4	1.3717201890746042e-05
1444.5	7.3424248330978035e-06
1442.6	8.244559232006241e-06
1440.6	1.1135665903221081e-05
1438.7	1.4155016812046183e-05
1436.8	1.637522537888017e-05
1434.9	1.3741031138833322e-05
1432.9	6.834145509478106e-06
1431.0	8.112518883095026e-07
1429.1	-8.061449247112888e-07
1427.1	-9.893621168559103e-07
1425.2	6.04332147556173e-07
1423.3	6.883587544466647e-06
1421.4	8.686657570293726e-06
1419.4	-8.725354514887724e-07
1417.5	-1.0854846255055751e-05
1415.6	-1.4958174552897013e-05
1413.6	-1.7990687588324143e-05
1411.7	-1.8581940451245068e-05
1409.8	-1.2212611471175862e-05
1407.9	-2.671560840115006e-06
1405.9	2.471614443740771e-07
1404.0	-6.281068174065585e-06
1402.1	-1.477445543589492e-05
1400.1	-1.8364836021636348e-05
1398.2	-2.1160455143511524e-05
1396.3	-2.6750431265532807e-05
1394.4	-2.525490960479513e-05
1392.4	-1.6551917547877803e-05
1390.5	-1.3885643974465136e-05
1388.6	-1.673492519857695e-05
1386.6	-1.9779888894303475e-05
1384.7	-2.0351108620437564e-05
1382.8	-1.617430924418889e-05
1380.9	-1.0462813703035916e-05
1378.9	-9.153808293942776e-06
1377.0	-1.3567842697724292e-05
1375.1	-2.3181877101505785e-05
1373.1	-2.9973485697578083e-05
1371.2	-2.840507772525704e-05
1369.3	-2.5916168802689926e-05
1367.4	-2.777471370790897e-05
1365.4	-2.8048667218946407e-05
1363.5	-2.8101052580283573e-05
1361.6	-3.440034111398086e-05
1359.6	-3.8321456069392336e-05
1357.7	-3.26537595633741e-05
1355.8	-2.8756863700599404e-05
1353.9	-3.209552166073779e-05
1351.9	-3.722548121436578e-05
1350.0	-4.1574971979923e-05
1348.1	-4.172898981531113e-05
1346.1	-3.876835924175235e-05
1344.2	-4.0524818478631645e-05
1342.3	-4.705207835875443e-05
1340.4	-5.048737390965356e-05
1338.4	-5.1289815311144705e-05
1336.5	-5.229215925149848e-05
1334.6	-5.0922732810291884e-05
1332.6	-5.043906242385849e-05
1330.7	-5.735645923687929e-05
1328.8	-6.638850445884702e-05
1326.9	-7.090244140149117e-05
1324.9	-7.413519808976171e-05
1323.0	-7.751953121192925e-05
1321.1	-7.499308025924663e-05
1319.1	-6.577812484771697e-05
1317.2	-5.8847809560937575e-05
1315.3	-5.5388908922567133e-05
1313.4	-5.473697675551873e-05
1311.4	-6.343835095755567e-05
1309.5	-7.217980605233664e-05
1307.6	-6.803590955606452e-05
1305.6	-6.304740509721748e-05
1303.7	-6.996063057355878e-05
1301.8	-8.099023439403537e-05
1299.9	-8.564598216461186e-05
1297.9	-8.378118025437358e-05
1296.0	-7.704425222942351e-05
1294.1	-7.174913503240582e-05
1292.1	-7.1721616880269e-05
1290.2	-7.325472930169095e-05
1288.3	-7.956658057599531e-05
1286.4	-9.200559426928512e-05
1284.4	-9.866551337654111e-05
1282.5	-9.389338726182934e-05
1280.6	-8.689094586033819e-05
1278.6	-8.579511719701769e-05
1276.7	-9.027177038156035e-05
1274.8	-9.269094586033821e-05
1272.9	-9.526307197504996e-05
1270.9	-0.00010175050923444276
1269.0	-0.00010620763120705618
1267.1	-0.00010683235222455045
1265.1	-0.0001051246722869256
1263.2	-9.90598703766873e-05
1261.3	-9.428428439159885e-05
1259.4	-9.441531114468107e-05
1257.4	-9.654074362847814e-05
1255.5	-9.800971687539594e-05
1253.6	-9.471388821207544e-05
1251.6	-8.864420349885483e-05
1249.7	-8.815814044149894e-05
1247.8	-9.083479362604161e-05
1245.9	-8.903967642902393e-05
1243.9	-8.520066273573413e-05
1242.0	-8.328708152624141e-05
1240.1	-8.192436528434288e-05
1238.1	-8.047314458359728e-05
1236.2	-7.808464012475025e-05
1234.3	-7.560554553871645e-05
1232.4	-7.778952292773257e-05
1230.4	-8.262924808732519e-05
1228.5	-8.240345987037669e-05
1226.6	-7.612889235417378e-05
1224.6	-6.83825544564105e-05
1222.7	-6.576373471078407e-05
1220.8	-6.911912674820915e-05
1218.9	-7.016129330929293e-05
1216.9	-6.791531114468105e-05
1215.0	-6.9208342673359e-05
1213.1	-7.110381560352809e-05
1211.1	-6.856200477559573e-05
1209.2	-6.450554553871643e-05
1207.3	-6.505849617465036e-05
1205.4	-6.88818429901077e-05
1203.4	-6.854491496515765e-05
1201.5	-6.219160859607232e-05
1199.6	-5.413097802251352e-05
1197.6	-4.6916685346718e-05
1195.7	-4.0353969104819455e-05
1193.8	-3.6326450952682616e-05
1191.9	-3.917523025193704e-05
1189.9	-4.820971687539594e-05
1188.0	-5.55515277033283e-05
1186.1	-5.1017396813020806e-05
1184.1	-3.5582247453827786e-05
1182.2	-2.3107728668193554e-05
1180.3	-2.743489108717899e-05
1178.4	-4.2250509234442764e-05
1176.4	-5.152365381804006e-05
1174.5	-5.196826178061498e-05
1172.6	-4.4256766239462015e-05
1170.6	-3.457314458359729e-05
1168.7	-3.095503630427367e-05
1166.8	-3.0850509234442765e-05
1164.9	-3.189440573071488e-05
1162.9	-3.233865796013839e-05
1161.0	-2.8573500316748696e-05
1159.1	-2.7312158276887092e-05
1157.1	-3.186719458116076e-05
1155.2	-2.8421212416548904e-05
1153.3	-1.402716241898543e-05
1151.4	-5.641455094780958e-06
1149.4	-6.482910189561915e-06
1147.5	5.348423566103016e-07
1145.6	1.491180254373569e-05
1143.6	1.8410735344281477e-05
1141.7	1.058428439159885e-05
1139.8	7.788860191998439e-06
1137.9	1.2298625797963063e-05
1135.9	1.3872126114711761e-05
1134.0	7.222991082305931e-06
1132.1	-3.71113980800156e-06
1130.1	-5.461649042444327e-06
1128.2	3.859256371521854e-06
1126.3	6.826855416402712e-06
1124.4	6.968958627747155e-07
1122.4	-7.665318454266374e-07
1120.5	1.5724818478631652e-06
1118.6	1.726499683251302e-06
1116.6	6.354729301690952e-06
1114.7	2.0891657326640998e-05
1112.8	3.714216656108377e-05
1110.9	4.393413089030749e-05
1108.9	4.083621655864724e-05
1107.0	3.147004044637201e-05
1105.1	1.6483314653282004e-05
1103.1	4.881584718093662e-06
1101.2	7.436621022367331e-06
1099.3	1.3882247453827782e-05
1097.4	1.1558900638370449e-05
1095.4	3.3477608303688913e-06
1093.5	-2.7731592027679345e-07
1091.6	1.05178012767409e-05
1089.6	3.078886019199844e-05
1087.7	3.996968471322061e-05
1085.8	3.0632756688270555e-05
1083.9	1.8177364650845475e-05
1081.9	1.7287130256810098e-05
1080.0	2.9752643633351198e-05
1078.1	4.560142293260562e-05
1076.1	4.6775990448808525e-05
1074.2	3.147253057843186e-05
1072.3	2.1001471663174308e-05
1070.4	2.4724107012328824e-05
1068.4	2.927426051362019e-05
1066.5	2.34136299400614e-05
1064.6	1.0220242678232053e-05
1062.6	-2.268617513766388e-06
1060.7	-6.584640124750256e-06
1058.8	-1.0236538180400596e-06
1056.9	3.81886847619511e-06
1054.9	-9.476633692315244e-07
1053.0	-7.0751815213683465e-06
1051.1	-3.182505725841817e-06
1049.1	4.8171385410067694e-06
1047.2	3.307197504994944e-07
1045.3	-1.792329808488866e-05
1043.4	-3.574873056868573e-05
1041.4	-4.4901325471468254e-05
1039.5	-4.363581209492715e-05
1037.6	-4.001490668096097e-05
1035.6	-4.5275537254519765e-05
1033.7	-5.290203693777107e-05
1031.8	-4.926093757614152e-05
1029.9	-4.111632961356659e-05
1027.9	-4.467380731933141e-05
1026.0	-5.104349203255202e-05
1024.1	-4.358601432678719e-05
1022.1	-3.4833775157156084e-05
1020.2	-4.132751815213684e-05
1018.3	-5.0404171336679505e-05
1016.4	-4.805050923444277e-05
1014.4	-4.1775941718239846e-05
1012.5	-3.821775254617222e-05
1010.6	-4.201286974318991e-05
1008.6	-6.354176209736367e-05
1006.7	-8.871699234930072e-05
1004.8	-9.883718629696408e-05
1002.9	-0.0001028065152770333
1000.9	-0.00011234100190049217
999.0	-0.00012280997514740996
997.1	-0.00012817370985819407
995.1	-0.00013280784074850153
993.2	-0.00013997752546172213
991.3	-0.0001440144534866722
989.4	-0.00014321236781833244
987.4	-0.00013892981336192193
985.5	-0.00013134654743920861
983.6	-0.00012763189903026168
981.6	-0.0001320757955265338
979.7	-0.00013791307928463526
977.8	-0.000145493548072706
975.9	-0.00015752035475854
973.9	-0.00017065239998050779
972.0	-0.00018442137322742554
970.1	-0.00019725341844939334
968.1	-0.00020195168851420492
966.2	-0.00019441023341942404
964.3	-0.00018759070220749475
962.4	-0.0001898875493397008
960.4	-0.0001874537741825447
958.5	-0.0001768973636762341
956.6	-0.0001732273232298621
954.6	-0.00017863704010525805
952.7	-0.00018904746844695678
950.8	-0.00020404538277861702
948.9	-0.00020744365284342868
946.9	-0.00018315830125237558
945.0	-0.0001526572827834901
943.1	-0.00013906079138443545
941.1	-0.00013483291749914723
939.2	-0.00012836740412260612
937.3	-0.00012058378246674139
935.4	-0.00011296323278592663
933.4	-0.00010404721017494276
931.5	-0.0001017980751425369
929.6	-0.00011528134106525023
927.6	-0.0001239099264168413
925.7	-0.00010672981336192194
923.8	-8.701867355392037e-05
921.9	-8.893469616490426e-05
919.9	-9.94761512596852e-05
918.0	-9.91810340626675e-05
916.1	-8.352218215486575e-05
914.1	-7.299364553384338e-05
912.2	-8.432187515228302e-05
910.3	-9.252151941913163e-05
908.4	-8.186750158374349e-05
906.4	-6.159293406754056e-05
904.5	-4.0084947127332974e-05
902.6	-2.8421212416548904e-05
900.6	-2.8022586618585847e-05
898.7	-2.697411432191414e-05
896.8	-1.2435100628624342e-05
894.9	-2.1212124165489047e-06
892.9	-2.1357477705764823e-05
891.0	-4.2690945860338186e-05
889.1	-3.320839140392768e-05
887.1	-6.520242678232051e-06
885.2	1.1001018468885531e-05
883.3	1.34863700599386e-05
881.4	9.315262414112373e-06
879.4	1.0128210126212134e-06
877.5	-7.835602553481803e-06
875.6	-1.685406656595682e-05
873.6	-1.9697251595926115e-05
871.7	-9.091301593489594e-06
869.8	-1.3950509234442766e-05
867.9	-4.884700063349739e-05
865.9	-8.50163296135666e-05
864.0	-0.00010377869012231371
862.1	-9.156755031431217e-05
860.1	-4.0758900638370454e-05
858.2	1.1556717508893326e-05
856.3	2.6487032795672718e-05
854.4	3.938302226986989e-06
852.4	-3.206688757857804e-05
850.5	-4.266027484040739e-05
848.6	-2.4568310511183663e-05
846.6	-2.40306710199308e-05
844.7	-4.7884640124750255e-05
842.8	-5.357696018712538e-05
840.9	-3.149059012718679e-05
838.9	-1.2690994590906875e-05
837.0	-2.215686370059938e-05
835.1	-5.534603089518055e-05
833.1	-9.49393694264412e-05
831.2	-0.00013448464012475025
829.3	-0.00016857136591784025
827.4	-0.0001793026996735052
825.4	-0.00015461561814726377
823.5	-0.00011849822133424296
821.6	-0.00011195290190536524
819.6	-0.0001442904926660494
817.7	-0.00019178210126212172
815.8	-0.00022767721845913942
813.9	-0.00023387096145412016
811.9	-0.00020913789776326688
810.0	-0.00019113967642902393
808.1	-0.0002189723843867258
806.1	-0.00025830087227717946
804.2	-0.0002742395302373179
802.3	-0.0003015506700453195
800.4	-0.0003459318015691243
