3997.9	-3.137142439452268e-05
3996.0	-3.311453632863895e-05
3994.1	-3.3595969981969683e-05
3992.1	-3.236557672628039e-05
3990.2	-2.6313181618829493e-05
3988.3	-1.9476809122362455e-05
3986.3	-1.946917791530627e-05
3984.4	-2.6078758345109887e-05
3982.5	-3.1090882510598896e-05
3980.6	-2.966019199844062e-05
3978.6	-2.32179718337313e-05
3976.7	-1.696617123921836e-05
3974.8	-1.2475454412552994e-05
3972.8	-4.746415866673163e-06
3970.9	-8.131816188294919e-07
3969.0	-1.0477700891769407e-05
3967.1	-2.013997368549291e-05
3965.1	-1.8036372496467033e-05
3963.2	-1.2066005555284832e-05
3961.3	-5.216154183519324e-06
3959.3	-6.496856878319805e-07
3957.4	-2.9716875395935893e-06
3955.5	-3.2576141513571533e-06
3953.6	6.2344573851176835e-06
3951.6	2.2236869548267614e-05
3949.7	3.2935086009453705e-05
3947.8	2.9400199795331602e-05
3945.8	2.3291808391403918e-05
3943.9	2.3678792456507952e-05
3942.0	2.2028049315335493e-05
3940.1	1.729659860630573e-05
3938.1	1.5422630476097656e-05
3936.2	1.824344330198333e-05
3934.3	3.179841625651769e-05
3932.3	5.2418205740460976e-05
3930.4	6.180981433653331e-05
3928.5	5.991893182593438e-05
3926.6	6.360756785731686e-05
3924.6	7.419845036791581e-05
3922.7	8.053617757419228e-05
3920.8	7.809293406754053e-05
3918.8	7.271556454363818e-05
3916.9	6.747228692558838e-05
3915.0	5.6562803956922145e-05
3913.1	4.532563715218555e-05
3911.1	3.8719492227474295e-05
3909.2	3.886832025729739e-05
3907.3	6.328038107304709e-05
3905.3	0.00010425071877588816
3903.4	0.00012607236002144134
3901.5	0.00012479406461673407
3899.6	0.00011615207348569752
3897.6	0.00010507516202914088
3895.7	9.731731397105402e-05
3893.8	0.00010508398226207303
3891.8	0.00012068210126212173
3889.9	0.00012615709273427214
3888.0	0.00013182792261585692
3886.1	0.00014028382145119634
3884.1	0.00013370820135470972
3882.2	0.00012303195263388726
3880.3	0.00011889359680327465
3878.3	0.0001165097168753959
3876.4	0.00012425986550363045
3874.5	0.0001448909214950538
3872.6	0.00017315032405828174
3870.6	0.00019280222698698894
3868.7	0.00018414920325520188
3866.8	0.0001694311631986744
3864.8	0.00016699835777983534
3862.9	0.0001560809463476438
3861.0	0.0001368063154817017
3859.1	0.00013628206715072361
3857.1	0.00018658081964816525
3855.2	0.00027238393840456094
3853.3	0.00029578106817406574
3851.3	0.00022010751912674808
3849.4	0.00013934635738999067
3847.5	0.0001194113347302763
3845.6	0.00013946300375225376
3843.6	0.00016544840407387555
3841.7	0.00019421064762925773
3839.8	0.00022798224258077085
3837.8	0.00023669820184201535
3835.9	0.00020841573997368545
3834.0	0.0001814865308708152
3832.1	0.00017318375322840016
3830.1	0.00016798355343306855
3828.2	0.00016002573948637976
3826.3	0.00015636990887383655
3824.3	0.0001730216461186101
3822.4	0.0002036622191900979
3820.5	0.00021570179815798448
3818.6	0.0002266459675454411
3816.6	0.00024701560840115
3814.7	0.00022995815506066943
3812.8	0.00018312725988012276
3810.8	0.00016542303006676084
3808.9	0.00019093664538765164
3807.0	0.00021726294527557133
3805.1	0.0002246090638857756
3803.1	0.00024322023293211825
3801.2	0.0002510229764631352
3799.3	0.00021998151162224062
3797.3	0.00019130740704644022
3795.4	0.0001750733443789289
3793.5	0.00015711354709809462
3791.6	0.0001502726475317967
3789.6	0.0001553320793333658
3787.7	0.00016045394961259197
3785.8	0.000162891842502802
3783.8	0.0001652827250134009
3781.9	0.00016974532917499147
3780.0	0.00017146032844403292
3778.1	0.00016578949856244822
3776.1	0.000157879718337313
3774.2	0.00015870396666829102
3772.3	0.00017470598411383457
3770.3	0.00019269078992251832
3768.4	0.00019353330734369663
3766.5	0.00018174374543150916
3764.6	0.00017398517128794892
3762.6	0.00017881705082598313
3760.7	0.00019036290629111636
3758.8	0.00019417116612250863
3756.8	0.00019670321134447637
3754.9	0.00022586443155791624
3753.0	0.0002827868719847958
3751.1	0.0003132538082939426
3749.1	0.00028945374007114646
3747.2	0.00027941046245309666
3745.3	0.00030229589688611643
3743.3	0.00027694680083816556
3741.4	0.00021438121436577159
3739.5	0.00020122171434140628
3737.6	0.00022792485746308655
3735.6	0.0002392126699478582
3733.7	0.00022583896496272102
3731.8	0.00019877460650065778
3729.8	0.00016681279177428
3727.9	0.00014600555528483016
3726.0	0.00014352488182837092
3724.1	0.00014906934847229664
3722.1	0.00014970211977973784
3720.2	0.0001400851712879489
3718.3	0.000129168817309098
3716.3	0.00013285821353735197
3714.4	0.00015622032552019887
3712.5	0.0001779984601140294
3710.6	0.0001729684956873446
3708.6	0.00014842927732566636
3706.7	0.00012643574874518786
3704.8	0.00012270879099459086
3702.8	0.00013160988255932942
3700.9	0.000132920652015009
3699.0	0.00012493092441888797
3697.1	0.00011834436918278836
3695.1	0.00012411371278202814
3693.2	0.000150686428536621
3691.3	0.00018813691340577944
3689.3	0.00020365634228351422
3687.4	0.0001753379708591199
3685.5	0.00013229389405974363
3683.6	0.00010978001559378199
3681.6	0.0001086821305004629
3679.7	0.00013176069392329808
3677.8	0.0001812612299595535
3675.8	0.00020982770332829772
3673.9	0.0001905244968568782
3672.0	0.0001729973393109496
3670.1	0.00016152036450465363
3668.1	0.0001247682617806149
3666.2	9.010026801812772e-05
3664.3	8.060109156473856e-05
3662.3	8.390931728473272e-05
3660.4	9.398540032162173e-05
3658.5	0.00011018669168169192
3656.6	0.00011478870912723545
3654.6	0.00010091071097899709
3652.7	0.00010774926660494122
3650.8	0.00015061848350470246
3648.8	0.0001680884557282783
3646.9	0.00012667599532186538
3645.0	7.516350080405431e-05
3643.1	5.128734954436916e-05
3641.1	4.6690619365528e-05
3639.2	4.8249753910628125e-05
3637.3	5.0271029676916313e-05
3635.3	4.7871658301252366e-05
3633.4	5.147202378051751e-05
3631.5	8.542039374299492e-05
3629.6	0.00012688462063252266
3627.6	0.00011508379221285509
3625.7	6.568926952877537e-05
3623.8	4.3065381804005656e-05
3621.8	5.577503045660543e-05
3619.9	6.73870912723551e-05
3618.0	6.001926806685823e-05
3616.1	4.8450056040153975e-05
3614.1	4.368134106525021e-05
3612.2	4.5541996004093345e-05
3610.3	5.241342039861605e-05
3608.3	4.9962345889576496e-05
3606.4	3.370912236245796e-05
3604.5	2.011100336240924e-05
3602.6	1.4340636421227053e-05
3600.6	1.3079123824375017e-05
3598.7	1.7749193509088252e-05
3596.8	1.9999805077725225e-05
3594.8	8.134691291847388e-06
3592.9	-4.395999220310932e-06
3591.0	7.582033039325571e-06
3589.1	3.474602602212358e-05
3587.1	3.948375322840021e-05
3585.2	1.5388012280103308e-05
3583.3	-7.4686467521075886e-06
3581.3	-1.2446810584279517e-05
3579.4	-1.3873305394473972e-05
3577.5	-2.528992251839579e-05
3575.6	-3.880564787291069e-05
3573.6	-4.062391696311097e-05
3571.7	-2.5098742751327913e-05
3569.8	-3.964085570878608e-06
3567.8	1.912031577408458e-06
3565.9	-5.5258613128015025e-06
3564.0	-6.668149700306985e-06
3562.1	-3.423585595243911e-06
3560.1	-1.1092466254081183e-05
3558.2	-2.606194142585644e-05
3556.3	-3.689742215291653e-05
3554.3	-4.252570050192486e-05
3552.4	-4.701056966034796e-05
3550.5	-4.814889137956241e-05
3548.6	-4.326758929876711e-05
3546.6	-4.154856001169533e-05
3544.7	-5.0225369134057835e-05
3542.8	-5.5506836898786606e-05
3540.8	-4.971179279762196e-05
3538.9	-4.359097997173627e-05
3537.0	-4.133693289800692e-05
3535.1	-4.021912674820916e-05
3533.1	-4.4339047804687885e-05
3531.2	-5.307796403684032e-05
3529.3	-5.6426295014862845e-05
3527.3	-4.98503776619073e-05
3525.4	-3.999857706739439e-05
3523.5	-3.7956522586618605e-05
3521.6	-4.256313045173239e-05
3519.6	-4.09134447639004e-05
3517.7	-3.570102334194241e-05
3515.8	-3.8150874713707905e-05
3513.8	-4.3865542614882315e-05
3511.9	-4.6302509624287315e-05
3510.0	-4.7551006286243376e-05
3508.1	-5.312226499683252e-05
3506.1	-6.411043808781248e-05
3504.2	-7.362794698114128e-05
3502.3	-7.445160079918134e-05
3500.3	-6.800984357487452e-05
3498.4	-5.955490473173822e-05
3496.5	-4.978424053408703e-05
3494.6	-4.1783943277618046e-05
3492.6	-4.1497124896447554e-05
3490.7	-4.599907411919498e-05
3488.8	-5.095401296233126e-05
3486.8	-5.5947273524682035e-05
3484.9	-5.906478241801082e-05
3483.0	-6.0720018517616105e-05
3481.1	-6.070475610350373e-05
3479.1	-5.878665269723699e-05
3477.2	-5.852408264704449e-05
3475.3	-5.804743920861557e-05
3473.3	-5.457812972077385e-05
3471.4	-5.0476477754495385e-05
3469.5	-5.202272793723503e-05
3467.6	-6.358470347448956e-05
3465.6	-7.372917011841528e-05
3463.7	-7.108321719214465e-05
3461.8	-6.468771015057746e-05
3459.8	-6.25116612250865e-05
3457.9	-5.691195848155548e-05
3456.0	-4.552603186979193e-05
3454.1	-4.03395107450904e-05
3452.1	-4.355583061254325e-05
3450.2	-4.3740402514497344e-05
3448.3	-4.043035914429123e-05
3446.3	-4.133290287997662e-05
3444.4	-4.727198479606257e-05
3442.5	-5.7011363968617506e-05
3440.6	-7.002034988548316e-05
3438.6	-7.748936211685591e-05
3436.7	-7.113561229959554e-05
3434.8	-6.022018420154964e-05
3432.8	-5.612048145801863e-05
3430.9	-5.899174016860777e-05
3429.0	-6.24607523999805e-05
3427.1	-6.204413527605867e-05
3425.1	-5.726583987135131e-05
3423.2	-5.180670532625118e-05
3421.3	-5.3123322450173e-05
3419.3	-6.0789196432922374e-05
3417.4	-6.397393401881e-05
3415.5	-6.029504410116466e-05
3413.6	-5.500941474587009e-05
3411.6	-5.1038156035280936e-05
3409.7	-4.91435407631207e-05
3407.8	-4.368470347448954e-05
3405.8	-3.6179616003118774e-05
3403.9	-3.305761415135715e-05
3402.0	-2.970581355684422e-05
3400.1	-2.3016285756054782e-05
3398.1	-2.0473471078407482e-05
3396.2	-2.549487841723115e-05
3394.3	-3.298618975683446e-05
3392.3	-3.445100628624337e-05
3390.4	-2.7033497392914593e-05
3388.5	-1.5187247210174954e-05
3386.6	-7.067789094098737e-06
3384.6	-8.493689391355201e-06
3382.7	-1.4596233127040595e-05
3380.8	-1.670161785488037e-05
3378.8	-1.3711198284683992e-05
3376.9	-1.0517937722333215e-05
3375.0	-1.2820481458018624e-05
3373.1	-1.7538287607816395e-05
3371.1	-1.684681058427953e-05
3369.2	-1.2442614882315691e-05
3367.3	-9.854144534866718e-06
3365.3	-7.263130451732385e-06
3363.4	-3.3369328980069286e-06
3361.5	-2.2682179231031598e-06
3359.6	-4.239773890161316e-06
3357.6	-4.689625261926811e-06
3355.7	-5.67720383996883e-06
3353.8	-6.698313922323489e-06
3351.8	1.3653135812094995e-06
3349.9	1.299825057258418e-05
3348.0	1.5548993713756627e-05
3346.1	1.2452429218848969e-05
3344.1	9.548233516885134e-06
3342.2	2.073836557672627e-06
3340.3	-5.480044832123198e-06
3338.3	2.522976463135312e-07
3336.4	1.2766668291018965e-05
3334.5	1.7652892159251498e-05
3332.6	1.9319955167876795e-05
3330.6	2.5584177184347738e-05
3328.7	3.113148482042786e-05
3326.8	2.968387992787875e-05
3324.8	2.3753189415720482e-05
3322.9	1.6586720920033123e-05
3321.0	1.425797963062227e-05
3319.1	2.2819360654938842e-05
3317.1	3.413089030748989e-05
3315.2	3.766187807611713e-05
3313.3	3.7443014472978894e-05
3311.3	3.562864382827349e-05
3309.4	2.9859334340431744e-05
3307.5	2.672834657180449e-05
3305.6	3.284526095219531e-05
3303.6	4.099570683689877e-05
3301.7	4.0857979630622274e-05
3299.8	3.524136250670045e-05
3297.8	3.510558452317138e-05
3295.9	4.14698065396423e-05
3294.0	4.3703040787485976e-05
3292.1	3.738642366356415e-05
3290.1	2.8508128258856768e-05
3288.2	2.5915462209443976e-05
3286.3	3.063432581258223e-05
3284.3	3.3174596754544113e-05
3282.4	2.9855733151405882e-05
3280.5	2.8410374738073187e-05
3278.6	3.198582915062618e-05
3276.6	3.197624872082257e-05
3274.7	2.4593757614151353e-05
3272.8	1.9648993713756625e-05
3270.8	2.2277437746698485e-05
3268.9	2.8370103796111294e-05
3267.0	3.271546220944398e-05
3265.1	3.598252521806929e-05
3263.1	4.033297110277277e-05
3261.2	4.0297490375712676e-05
3259.3	3.482877540080892e-05
3257.3	3.224089956629793e-05
3255.4	3.093581209492714e-05
3253.5	2.4790453681594454e-05
3251.6	2.0340899566297932e-05
3249.6	2.3343740558452306e-05
3247.7	2.3477272062764972e-05
3245.8	1.850796257492325e-05
3243.8	1.7036109351396123e-05
3241.9	1.910736806198527e-05
3240.0	2.403835583061254e-05
3238.1	3.197892402904341e-05
3236.1	3.216709712002339e-05
3234.2	2.4086257979630615e-05
3232.3	2.1488801715316013e-05
3230.3	2.366993811217777e-05
3228.4	2.2979815798450374e-05
3226.5	2.3418434774133808e-05
3224.6	2.2949719799230053e-05
3222.6	1.579478095609375e-05
3220.7	8.849125286292086e-06
3218.8	1.1008259831392225e-05
3216.8	1.872203596315969e-05
3214.9	2.39217387066907e-05
3213.0	3.130287510355245e-05
3211.1	4.214598703766873e-05
3209.1	4.2276974806295986e-05
3207.2	2.9093591930217814e-05
3205.3	1.3903469616490418e-05
3203.3	-1.8742312752789837e-06
3201.4	-1.3354475902733787e-05
3199.5	-1.0459266117635597e-05
3197.6	-2.478724233711809e-06
3195.6	-3.1119584815554847e-06
3193.7	-6.718400662735735e-06
3191.8	-5.510472199210564e-06
3189.8	-5.514667901174407e-06
3187.9	-1.2428741289410847e-05
3186.0	-2.0345358413332686e-05
3184.1	-2.2490716826665368e-05
3182.1	-2.400763120705619e-05
3180.2	-2.9586223868232536e-05
3178.3	-3.4040865454899856e-05
3176.3	-3.466901223137274e-05
3174.4	-3.503488621412212e-05
3172.5	-3.734895960235856e-05
3170.6	-3.9935480727060084e-05
3168.6	-3.891975537254519e-05
3166.7	-3.576990400077969e-05
3164.8	-3.6761975537254516e-05
3162.8	-3.947770089176941e-05
3160.9	-3.7746415866673164e-05
3159.0	-3.329881097412407e-05
3157.1	-3.0894020759222255e-05
3155.1	-2.8218269090200283e-05
3153.2	-2.397155596705814e-05
3151.3	-2.3319160859607232e-05
3149.3	-2.785120608157497e-05
3147.4	-3.334298036158082e-05
3145.5	-3.83333999317772e-05
3143.6	-4.1726660494127965e-05
3141.6	-3.932725500706593e-05
3139.7	-3.510165196627845e-05
3137.8	-3.938728132157302e-05
3135.8	-5.0072316163929636e-05
3133.9	-5.637172165099167e-05
3132.0	-5.597142439452268e-05
3130.1	-5.252890697334438e-05
3128.1	-4.7979947370985814e-05
3126.2	-4.304027094196189e-05
3124.3	-4.176422201647094e-05
3122.3	-4.440224647921642e-05
3120.4	-4.8401949222747434e-05
3118.5	-5.328728132157302e-05
3116.6	-5.6463627503532965e-05
3114.6	-5.516871497490376e-05
3112.7	-5.604701037961114e-05
3110.8	-6.339881097412407e-05
3108.8	-6.957231616392964e-05
3106.9	-7.219851371765509e-05
3105.0	-7.937231616392964e-05
3103.1	-8.964103113883338e-05
3101.1	-9.024298036158082e-05
3099.2	-8.204298036158081e-05
3097.3	-7.721708006432435e-05
3095.3	-8.007651186589347e-05
3093.4	-8.580720237805174e-05
3091.5	-8.666468495687346e-05
3089.6	-8.064387213098777e-05
3087.6	-7.425374981726037e-05
3085.7	-7.141123239608207e-05
3083.8	-7.200449295843283e-05
3081.8	-7.638338287607816e-05
3079.9	-7.997380244627455e-05
3078.0	-7.98134788752985e-05
3076.1	-7.837456264314604e-05
3074.1	-7.882920422981336e-05
3072.2	-8.063653818040057e-05
3070.3	-8.197965011451685e-05
3068.3	-8.169207153647483e-05
3066.4	-8.229236879294382e-05
3064.5	-8.573967642902392e-05
3062.6	-8.6563032990595e-05
3060.6	-8.332246479216412e-05
3058.7	-8.289177428000584e-05
3056.8	-8.420165196627844e-05
3054.8	-8.189236879294381e-05
3052.9	-7.68351834705911e-05
3051.0	-7.429910823059305e-05
3049.1	-7.623937917255495e-05
3047.1	-7.846587398274939e-05
3045.2	-7.635180059451294e-05
3043.3	-7.179431801569124e-05
3041.3	-6.991063788314409e-05
3039.4	-7.568923054432046e-05
3037.5	-8.542305930510207e-05
3035.6	-8.66501486282345e-05
3033.6	-7.766032357097608e-05
3031.7	-7.089834803372155e-05
3029.8	-7.141437064470542e-05
3027.8	-7.35827883631402e-05
3025.9	-7.865404707372936e-05
3024.0	-8.408503484235661e-05
3022.1	-7.917575166902197e-05
3020.1	-6.661212416548903e-05
3018.2	-6.063891623215243e-05
3016.3	-6.679834803372156e-05
3014.3	-7.505748257882168e-05
3012.4	-7.5900297256469e-05
3010.5	-7.253861897568344e-05
3008.6	-6.874116271136884e-05
3006.6	-6.30220018517616e-05
3004.7	-5.733832171921446e-05
3002.8	-5.3340568198430866e-05
3000.8	-5.385493884313631e-05
2998.9	-5.91549388431363e-05
2997.0	-6.252395107450904e-05
2995.1	-6.132395107450903e-05
2993.1	-5.8035777983529076e-05
2991.2	-5.499041957019638e-05
2989.3	-5.6269012231372734e-05
2987.3	-5.9983382876078164e-05
2985.4	-5.8595209785098185e-05
2983.5	-5.39901223137274e-05
2981.6	-5.2018566346669264e-05
2979.6	-5.1009283173334633e-05
2977.7	-4.7669012231372735e-05
2975.8	-4.32549388431363e-05
2973.8	-3.870059451293797e-05
2971.9	-3.610313824862336e-05
2970.0	-3.606257005019249e-05
2968.1	-3.4689064860386924e-05
2966.1	-3.189220310901028e-05
2964.2	-3.414998294430096e-05
2962.3	-4.0454773159202774e-05
2960.3	-4.078037619999025e-05
2958.4	-3.481301593489596e-05
2956.5	-3.186765752156328e-05
2954.6	-3.336825203450124e-05
2952.6	-3.1997290580381086e-05
2950.7	-2.6037561522342965e-05
2948.8	-1.949444958822669e-05
2946.8	-1.4751634910579408e-05
2944.9	-1.4270795770186644e-05
2943.0	-1.867588324155743e-05
2941.1	-2.379084839920082e-05
2939.1	-2.620326982115881e-05
2937.2	-2.4143540763120713e-05
2935.3	-1.7859563374104573e-05
2933.3	-1.2075883241557433e-05
2931.4	-6.6116612250864965e-06
2929.5	-2.080970712928225e-06
2927.6	-6.533663076848111e-06
2925.6	-1.5912255738024466e-05
2923.7	-1.850013157253546e-05
2921.8	-1.263366307684811e-05
2919.8	-5.339345061156871e-06
2917.9	-1.9641879050728595e-06
2916.0	-5.876312070561866e-06
2914.1	-1.4635149359193021e-05
2912.1	-1.8617640465864244e-05
2910.2	-1.3869738316846163e-05
2908.3	-5.7221334242970595e-06
2906.3	1.899907411919479e-07
2904.4	3.2328054188392366e-06
2902.5	6.639544856488471e-06
2900.6	7.806310608644795e-06
2898.6	3.4567564933482755e-06
2896.7	-3.321538911359095e-06
2894.8	-8.914204960771885e-06
2892.8	-1.1483514448613614e-05
2890.9	-1.2379616003118765e-05
2889.0	-1.513964231762585e-05
2887.1	-1.7032308367038653e-05
2885.1	-1.4303567077627798e-05
2883.2	-1.1610603771746025e-05
2881.3	-1.3119589688611673e-05
2879.3	-1.5511958481555485e-05
2877.4	-1.5159860630573563e-05
2875.5	-1.378410896155159e-05
2873.6	-1.1912552994493449e-05
2871.6	-8.071984796062573e-06
2869.7	-2.8652453584133357e-06
2867.8	-2.2917401686077695e-06
2865.8	-8.18919643292237e-06
2863.9	-1.130551630037523e-05
2862.0	-6.036206812533503e-06
2860.1	-5.170459529262705e-07
2858.1	5.590029725646883e-07
2856.2	2.4015203937429897e-06
2854.3	4.853618244724908e-06
2852.3	1.7916427074703844e-06
2850.4	-2.8489254909604836e-06
2848.5	-3.892037425076753e-06
2846.6	-6.258803177233076e-06
2844.6	-1.086329613566591e-05
2842.7	-1.2198776862725991e-05
2840.8	-1.1458505920764095e-05
2838.8	-1.3725568929389407e-05
2836.9	-1.806134691291848e-05
2835.0	-1.9542186053311243e-05
2833.1	-1.9499371375663963e-05
2831.1	-2.0682754251742128e-05
2829.2	-2.510386433409678e-05
2827.3	-3.061764046586424e-05
2825.3	-3.127677501096438e-05
2823.4	-2.5352823936455335e-05
2821.5	-1.909593587057161e-05
2819.6	-1.8015393986647827e-05
2817.6	-1.6646679011744065e-05
2815.7	-1.1049520003898457e-05
2813.8	-9.321373227425563e-06
2811.8	-1.7047570781151037e-05
2809.9	-2.5859397690171048e-05
2808.0	-2.7538287607816394e-05
2806.1	-2.4014633789776348e-05
2804.1	-1.769263193801474e-05
2802.2	-1.1182456995273149e-05
2800.3	-1.1799074119194973e-05
2798.3	-1.9180210516056724e-05
2796.4	-2.494188879684226e-05
2794.5	-2.5796233127040596e-05
2792.6	-2.3448628234491498e-05
2790.6	-1.9803567077627796e-05
2788.7	-1.9720184201549624e-05
2786.8	-2.2946381755275083e-05
2784.8	-2.3553715705862288e-05
2782.9	-2.2496827639978554e-05
2781.0	-2.313260562350763e-05
2779.1	-2.3620481458018616e-05
2777.1	-2.392751815213684e-05
2775.2	-2.3842186053311253e-05
2773.3	-2.2828409921543784e-05
2771.3	-2.5371224599191084e-05
2769.4	-2.939937137566396e-05
2767.5	-2.9427815408605825e-05
2765.6	-2.99779640368403e-05
2763.6	-3.2446976268213054e-05
2761.7	-3.1618234978802205e-05
2759.8	-2.7708951805467585e-05
2757.8	-2.4142780566249203e-05
2755.9	-2.137152185566006e-05
2754.0	-2.253799035134741e-05
2752.1	-2.857347107840749e-05
2750.1	-3.2111495541152964e-05
2748.2	-2.8445027045465622e-05
2746.3	-2.2116583012523766e-05
2744.3	-1.9659100433702075e-05
2742.4	-2.297287656546952e-05
2740.5	-2.73156912431168e-05
2738.6	-2.8811495541152965e-05
2736.6	-2.759292919448371e-05
2734.7	-2.2792929194483714e-05
2732.8	-1.666448516154185e-05
2730.8	-1.6021967740363533e-05
2728.9	-2.1386189756834474e-05
2727.0	-2.7381102285463656e-05
2725.1	-3.136194142585645e-05
2723.1	-3.412137322742557e-05
2721.2	-3.818050777252571e-05
2719.3	-4.1639642317625844e-05
2717.3	-3.9682456995273143e-05
2715.4	-3.36706300862531e-05
2713.5	-2.959682763997855e-05
2711.6	-2.9018234978802223e-05
2709.6	-3.0294283904293166e-05
2707.7	-3.1029764631353247e-05
2705.8	-3.032018420154963e-05
2703.8	-2.9701320598411377e-05
2701.9	-2.9920778714487598e-05
2700.0	-3.129263193801472e-05
2698.1	-3.497376833487648e-05
2696.1	-3.658813897958188e-05
2694.2	-3.104532430193459e-05
2692.3	-2.4690385458798312e-05
2690.3	-2.4768680863505676e-05
2688.4	-2.6597124896447544e-05
2686.5	-2.4883051508211093e-05
2684.6	-2.2876312070561872e-05
2682.6	-2.41954729301691e-05
2680.7	-2.947376833487647e-05
2678.8	-3.489008820232933e-05
2676.8	-3.538754446664392e-05
2674.9	-3.296868086350567e-05
2673.0	-3.3240534087032806e-05
2671.1	-3.431942400467813e-05
2669.1	-2.996478241801082e-05
2667.2	-2.0121967740363538e-05
2665.3	-1.4574362847814444e-05
2663.3	-1.962421421957995e-05
2661.4	-2.650250962428732e-05
2659.5	-2.635460747526925e-05
2657.6	-2.4144729788996654e-05
2655.6	-2.5849222747429472e-05
2653.7	-2.9806110813313196e-05
2651.8	-3.357961600311875e-05
2649.8	-3.6196530383509576e-05
2647.9	-3.78782612933093e-05
2646.0	-3.8519126748209145e-05
2644.1	-3.8218829491740166e-05
2642.1	-3.97281126650748e-05
2640.2	-4.290221236781833e-05
2638.3	-4.299771940938551e-05
2636.3	-3.9307002582720145e-05
2634.4	-3.997317382193851e-05
2632.5	-4.438949368939135e-05
2630.6	-4.582497441645144e-05
2628.6	-4.5182159738804156e-05
2626.7	-4.226359339213489e-05
2624.8	-3.6445027045465627e-05
2622.8	-3.526194142585645e-05
2620.9	-3.9750114516836407e-05
2619.0	-4.2023619706641994e-05
2617.1	-4.066838360703671e-05
2615.1	-3.832077871448761e-05
2613.2	-3.5237990351347406e-05
2611.3	-3.4183646021149066e-05
2609.3	-3.7292929194483714e-05
2607.4	-3.9330359144291215e-05
2605.5	-3.887033282978412e-05
2603.6	-4.202018420154963e-05
2601.6	-4.719174016860777e-05
2599.7	-4.4532605623507635e-05
2597.8	-3.64210759709566e-05
2595.8	-3.6032902879976624e-05
2593.9	-4.591119828468399e-05
2592.0	-5.15757175576239e-05
2590.1	-4.6768978119974674e-05
2588.1	-4.1007002582720146e-05
2586.2	-3.925910043370206e-05
2584.3	-3.785401296233127e-05
2582.3	-3.8591740168607764e-05
2580.4	-4.535820866429511e-05
2578.5	-5.1717640465864235e-05
2576.6	-4.921285025096244e-05
2574.6	-4.042243068076605e-05
2572.7	-3.527482578821696e-05
2570.8	-3.806299887919693e-05
2568.8	-4.4236801325471474e-05
2566.9	-4.8450874713707925e-05
2565.0	-5.127228205253155e-05
2563.1	-5.122497441645145e-05
2561.1	-4.752751815213683e-05
2559.2	-4.51582086642951e-05
2557.3	-4.482213342429706e-05
2555.3	-4.4945787242337126e-05
2553.4	-4.321958968861167e-05
2551.5	-3.90362068125335e-05
2549.6	-3.820746552312266e-05
2547.6	-4.07167486964573e-05
2545.7	-4.399758783685007e-05
2543.8	-4.629788509331905e-05
2541.8	-4.483171385410067e-05
2539.9	-4.581285025096244e-05
2538.0	-5.213171385410068e-05
2536.1	-5.4755367672140746e-05
2534.1	-4.86888991764534e-05
2532.2	-4.069877686272598e-05
2530.3	-3.7937098581940455e-05
2528.3	-4.2517937722333214e-05
2526.4	-4.8988899176453394e-05
2524.5	-4.929818234978803e-05
2522.6	-4.2333960333317096e-05
2520.6	-3.3876775010964386e-05
2518.7	-3.0710009258808044e-05
2516.8	-3.734069977096633e-05
2514.8	-4.688771015057746e-05
2512.9	-4.763022757175577e-05
2511.0	-4.403531504312655e-05
2509.1	-4.4759563374104566e-05
2507.1	-4.6450280200769946e-05
2505.2	-4.474803372155354e-05
2503.3	-4.205986063057357e-05
2501.3	-4.2785760927830014e-05
2499.4	-4.586884654743921e-05
2497.5	-4.7206871010184695e-05
2495.6	-4.686151259685199e-05
2493.6	-4.845896886116661e-05
2491.7	-5.1242351737244774e-05
2489.8	-5.0890253886262866e-05
2487.8	-4.79592661176356e-05
2485.9	-4.613022757175576e-05
2484.0	-4.710627649724672e-05
2482.1	-4.691361044783393e-05
2480.1	-4.4246844695677604e-05
2478.2	-4.570852297646314e-05
2476.3	-5.048711563763949e-05
2474.3	-5.222514010038497e-05
2472.4	-5.1648496661956046e-05
2470.5	-5.039580429803615e-05
2468.6	-5.1852989620388875e-05
2466.6	-5.586257005019248e-05
2464.7	-5.18794844305833e-05
2462.8	-4.2041757224306796e-05
2460.8	-3.951076945567955e-05
2458.9	-4.3967657521563266e-05
2457.0	-4.628906486038692e-05
2455.1	-4.4391608596072324e-05
2453.1	-4.3796398810974125e-05
2451.2	-4.401301593489597e-05
2449.3	-4.1265411042346866e-05
2447.3	-3.936765752156328e-05
2445.4	-4.34600263145071e-05
2443.5	-5.115718532235271e-05
2441.6	-5.528338287607816e-05
2439.6	-5.305972905803812e-05
2437.7	-5.1419160859607234e-05
2435.8	-5.615943180156913e-05
2433.8	-6.037604892549096e-05
2431.9	-5.637859266117636e-05
2430.0	-5.048368013254715e-05
2428.1	-4.9738618975683457e-05
2426.1	-4.9859729058038114e-05
2424.2	-4.634730763608011e-05
2422.3	-4.210898591686565e-05
2420.3	-4.1887578578042004e-05
2418.4	-4.404730763608011e-05
2416.5	-4.3766765752156326e-05
2414.6	-4.2150445884703476e-05
2412.6	-4.3469309487841726e-05
2410.7	-4.522590029725647e-05
2408.8	-4.2982788363140194e-05
2406.8	-4.208533209882559e-05
2404.9	-4.247859266117636e-05
2403.0	-3.7512421421957995e-05
2401.1	-3.034116271136884e-05
2399.1	-2.9207333950587202e-05
2397.2	-3.391377613176746e-05
2395.3	-3.754925685882754e-05
2393.3	-3.8725603040787485e-05
2391.4	-3.8261381024316555e-05
2389.5	-3.628982505725842e-05
2387.6	-3.588249110667122e-05
2385.6	-3.684895960235856e-05
2383.7	-3.665374981726037e-05
2381.8	-3.5780541883923786e-05
2379.8	-3.473607523999805e-05
2377.9	-2.9152989620388865e-05
2376.0	-1.9783977389016133e-05
2374.1	-1.672484284391599e-05
2372.1	-2.1125734613322943e-05
2370.2	-2.4893392134886208e-05
2368.3	-2.7746381755275085e-05
2366.3	-3.3951469226645875e-05
2364.4	-3.991853223527121e-05
2362.5	-3.779966863213293e-05
2360.6	-3.053035914429122e-05
2358.6	-2.3854012962331267e-05
2356.7	-2.0592037425076745e-05
2354.8	-2.2336504069002478e-05
2352.8	-2.8908820232932117e-05
2350.9	-3.738847034744896e-05
2349.0	-3.6816914380390816e-05
2347.1	-2.3629633058817804e-05
2345.1	-9.942351737244773e-06
2343.2	-2.8071682666536713e-06
2341.3	8.829540470737297e-07
2339.3	1.6283124604064107e-06
2337.4	-5.592661176355971e-07
2335.5	-2.951932167048391e-06
2333.6	-5.033068563910145e-06
2331.6	-8.471093026655624e-06
2329.7	-1.1289659373324892e-05
2327.8	-1.3474694215681497e-05
2325.8	-1.3345655669801668e-05
2323.9	-8.688173090979972e-06
2322.0	-2.4211100823546607e-06
2320.1	5.076312070561856e-07
2318.1	-4.173207933336581e-06
2316.2	-1.3189527800789434e-05
2314.3	-1.6817674577262314e-05
2312.3	-1.4033994444715166e-05
2310.4	-9.795672725500708e-06
2308.5	-6.202709419618921e-06
2306.6	-5.759597485502653e-06
2304.6	-8.535349154524627e-06
2302.7	-1.2861249451781098e-05
2300.8	-1.8497027435310164e-05
2298.8	-2.0511695336484572e-05
2296.9	-1.6883251303542707e-05
2295.0	-1.2078163832171915e-05
2293.1	-8.678163832171917e-06
2291.1	-5.681004824326291e-06
2289.2	-1.6931289898153047e-06
2287.3	-5.072023780517494e-07
2285.3	-5.092534476877339e-06
2283.4	-8.456459236879297e-06
2281.5	-5.237595633741044e-06
2279.6	-1.2787583451098834e-06
2277.6	-2.0934262462842895e-06
2275.7	-5.402709419618922e-06
2273.8	-8.273670873739096e-06
2271.8	-1.176154670825008e-05
2269.9	-1.5968583402368306e-05
2268.0	-1.813729837727206e-05
2266.1	-1.8967988889430334e-05
2264.1	-1.8291939963939374e-05
2262.2	-1.5468286145899322e-05
2260.3	-1.6329964426684857e-05
2258.3	-2.139867940158862e-05
2256.4	-2.3343740558452306e-05
2254.5	-2.020317236002144e-05
2252.6	-1.7412752789825053e-05
2250.6	-1.8793889186686807e-05
2248.7	-2.3453320988255934e-05
2246.8	-2.936006042590516e-05
2244.8	-3.124089956629793e-05
2242.9	-2.8238950343550514e-05
2241.0	-2.802038399688124e-05
2239.1	-2.9406310608644798e-05
2237.1	-2.8673076360801124e-05
2235.2	-3.070406412942839e-05
2233.3	-3.7089693484722965e-05
2231.3	-4.314658155060669e-05
2229.4	-4.681050631060865e-05
2227.5	-4.7448530773354125e-05
2225.6	-4.7446581550606695e-05
2223.6	-5.022097850981921e-05
2221.7	-5.3337892890210026e-05
2219.8	-5.4025768724721016e-05
2217.8	-5.1504064129428385e-05
2215.9	-4.727786657570294e-05
2214.0	-4.6237595633741044e-05
2212.1	-5.0947176063544656e-05
2210.1	-5.887307636080112e-05
2208.2	-6.287532284001753e-05
2206.3	-5.831843477413381e-05
2204.3	-5.593984211295745e-05
2202.4	-6.468685249256859e-05
2200.5	-7.423865308708153e-05
2198.6	-7.710287510355246e-05
2196.6	-7.80792212855124e-05
2194.7	-7.897922128551239e-05
2192.8	-8.251470201257248e-05
2190.8	-9.144060230982894e-05
2188.9	-9.891665123531992e-05
2187.0	-9.89096145412017e-05
2185.1	-9.386964085570878e-05
2183.1	-9.075586472394133e-05
2181.2	-9.340601335217582e-05
2179.3	-9.937023536864675e-05
2177.3	-0.00010285332098825594
2175.4	-9.92364066078651e-05
2173.5	-9.328176502119779e-05
2171.6	-9.338206227766678e-05
2169.6	-9.850601335217582e-05
2167.7	-0.00010421080356707763
2165.8	-0.00010741334730276302
2163.8	-0.00010733026168315384
2161.9	-0.00010598041031138834
2160.0	-0.00010603789289021003
2158.1	-0.00010898609229569708
2156.1	-0.00011207905560157886
2154.2	-0.0001125784610886409
2152.3	-0.00011339448369962478
2150.3	-0.0001173111008235466
2148.4	-0.00011888774426197554
2146.5	-0.0001172880415184445
2144.6	-0.00011598549778275914
2142.6	-0.00011412801520393742
2140.7	-0.00011419223722040838
2138.8	-0.00011756409044393548
2136.8	-0.00011965256079138444
2134.9	-0.00012059283173334631
2133.0	-0.00012430436138589736
2131.1	-0.00012915196627844648
2129.1	-0.00012881423907216996
2127.2	-0.00012221962380000976
2125.3	-0.00011728444032941865
2123.3	-0.00011882246479216413
2121.4	-0.00012131483358510795
2119.5	-0.00012341453632863897
2117.6	-0.0001273336971882462
2115.6	-0.00012873174796549877
2113.7	-0.00012667994737098582
2111.8	-0.00012644222016470932
2109.8	-0.00012625150333804395
2107.9	-0.00012582471127138055
2106.0	-0.00012787456264314604
2104.1	-0.0001296106378831441
2102.1	-0.00012864895960235854
2100.2	-0.00012893937917255496
2098.3	-0.0001331585400321622
2096.3	-0.00013821856634666925
2094.4	-0.0001421101749427416
2092.5	-0.00014920102334194238
2090.6	-0.0001665517323717168
2088.6	-0.00019428536133716677
2086.7	-0.00021580224160615958
2084.8	-0.0002162269528775401
2082.8	-0.00020149735393012037
2080.9	-0.00019195847180936598
2079.0	-0.0002026427805662492
2077.1	-0.00023533531504312655
2075.1	-0.0002718309877686273
2073.2	-0.00028386812046196576
2071.3	-0.0002654844403294187
2069.3	-0.0002328959699819697
2067.4	-0.00019555510452706984
2065.5	-0.0001499286097168754
2063.6	-9.023085619609182e-05
2061.6	-1.84407338823644e-05
2059.7	5.630148628234492e-05
2057.8	0.00012558681838117052
2055.8	0.00018680568198430877
2053.9	0.00024340763120705614
2052.0	0.00029616167828078557
2050.1	0.0003407968617513766
2048.1	0.00037801347887529853
2046.2	0.00041036841771843475
2044.3	0.00043221602261098386
2042.3	0.0004438013547098095
2040.4	0.0004502010574533405
2038.5	0.0004488726134203986
2036.6	0.0004415275522635349
2034.6	0.0004357703669411822
2032.7	0.0004322774036353005
2030.8	0.00042596078651137856
2028.8	0.0004154157253545149
2026.9	0.00040273488621412213
2025.0	0.0003894205155694167
2023.1	0.00037525599629647675
2021.1	0.0003592649822133424
2019.2	0.00034266888065883727
2017.3	0.00032791139808001563
2015.3	0.00031286917791530626
2013.4	0.0002963483650894206
2011.5	0.00028072216753569513
2009.6	0.00026573399444471514
2007.6	0.00025304357487451875
2005.7	0.00024064836508942057
2003.8	0.00022595764826275524
2001.8	0.00021409028799766096
1999.9	0.0002044111008235466
1998.0	0.0001901708298815847
1996.1	0.0001764829540470737
1994.1	0.00016952936991374687
1992.2	0.00016106620535061641
1990.3	0.00014699299741727985
1988.3	0.00013458714974903758
1986.4	0.0001266736708737391
1984.5	0.00011933369718824619
1982.6	0.00010957201890746065
1980.6	9.779596998196969e-05
1978.7	8.80886360313825e-05
1976.8	8.380465864236635e-05
1974.8	8.390181765021199e-05
1972.9	8.419223722040837e-05
1971.0	8.221334730276303e-05
1969.1	7.995527021100336e-05
1967.1	7.827159007845621e-05
1965.2	7.557023536864674e-05
1963.3	7.450211490668096e-05
1961.4	7.609732469177915e-05
1959.4	7.789478095609375e-05
1957.5	8.076858340236831e-05
1955.6	8.223534915452463e-05
1953.6	7.86736708737391e-05
1951.7	7.520241216314994e-05
1949.8	7.586663417962088e-05
1947.9	7.602292773256663e-05
1945.9	7.623013011061839e-05
1944.0	7.820125724867208e-05
1942.1	8.09609863067102e-05
1940.1	8.352368792943814e-05
1938.2	8.511423907216996e-05
1936.3	8.371004337020613e-05
1934.4	8.162187027922616e-05
1932.4	8.211453632863895e-05
1930.5	8.301902928707178e-05
1928.6	8.31807075678573e-05
1926.6	8.395361824472492e-05
1924.7	8.646082062277666e-05
1922.8	9.087056673651381e-05
1920.9	9.708255932946736e-05
1918.9	0.00010169874762438476
1917.0	9.886924613810243e-05
1915.1	9.15129184737586e-05
1913.1	8.610152039374298e-05
1911.2	8.405556746747234e-05
1909.3	8.25217387066907e-05
1907.4	7.717502558354856e-05
1905.4	6.826663417962087e-05
1903.5	6.152920422981336e-05
1901.6	6.226752594902782e-05
1899.6	6.925764826275523e-05
1897.7	7.463280541883923e-05
1895.8	7.116993811217777e-05
1893.9	6.29316163929633e-05
1891.9	5.9920846937283755e-05
1890.0	6.296696554748793e-05
1888.1	6.037638029335801e-05
1886.1	4.3288173090979974e-05
1884.2	1.503709858194044e-05
1882.3	-1.325543589493688e-05
1880.4	-3.27133814141611e-05
1878.4	-3.879422055455387e-05
1876.5	-3.126637103454997e-05
1874.6	-1.3977437746698494e-05
1872.6	1.3095507041567176e-05
1870.7	5.005186881730909e-05
1868.8	8.091268944008576e-05
1866.9	9.38647531796696e-05
1864.9	0.00010057892402904342
1863.0	0.0001101483650894206
1861.1	0.00011979596998196969
1859.1	0.00012647426538667708
1857.2	0.00012895090882510598
1855.3	0.00012860898591686567
1853.4	0.00012777380244627457
1851.4	0.00013088728132157302
1849.5	0.00014213161639296332
1847.6	0.00016219395740948298
1845.6	0.0001855687539593587
1843.7	0.00019310724136250665
1841.8	0.00018098483992008184
1839.9	0.00016989359193021785
1837.9	0.00016612441401491157
1836.0	0.00016333624092393158
1834.1	0.00016563386287217973
1832.1	0.00017672329321183176
1830.2	0.00018417304712245986
1828.3	0.00017943082695775055
1826.4	0.00017433409677890938
1824.4	0.00016604529506359338
1822.5	0.00014660677354904733
1820.6	0.00013029431801569124
1818.6	0.00012397799814823837
1816.7	0.00011789461527216024
1814.8	0.0001099058476682423
1812.9	0.00010466260416159054
1810.9	9.97701037961113e-05
1809.0	8.99217387066907e-05
1807.1	7.596243847765703e-05
1805.1	6.383055893962282e-05
1803.2	6.0148862141221174e-05
1801.3	5.973901856634667e-05
1799.4	4.998751522830271e-05
1797.4	3.572821499926902e-05
1795.5	3.7130661273817054e-05
1793.6	5.225920764095318e-05
1791.6	4.7648735441742514e-05
1789.7	1.5997427025973328e-05
1787.8	-8.894415476828627e-06
1785.9	-1.3144861361532104e-05
1783.9	-1.747195068466452e-05
1782.0	-3.162285950977049e-05
1780.1	-4.516389064860389e-05
1778.1	-4.9039345061156876e-05
1776.2	-3.6969967350518974e-05
1774.3	-1.2661273817065558e-05
1772.4	-4.232727449929351e-06
1770.4	-2.2939369426441293e-05
1768.5	-4.9081097412406835e-05
1766.6	-7.432130500462946e-05
1764.6	-8.633270308464501e-05
1762.7	-7.823190877637545e-05
1760.8	-7.579477608303688e-05
1758.9	-8.652834169874763e-05
1756.9	-9.594512450660303e-05
1755.0	-9.730604259051707e-05
1753.1	-8.319143803908193e-05
1751.1	-6.718760294332642e-05
1749.2	-7.267924565079677e-05
1747.3	-8.982814190341607e-05
1745.4	-0.00010044182057404613
1743.4	-0.00010285513376541105
1741.5	-9.833217192144634e-05
1739.6	-9.497690171044295e-05
1737.6	-8.201845913941827e-05
1735.7	-4.18306758929876e-05
1733.8	-2.5460801130549313e-05
1731.9	-7.264078748598995e-05
1729.9	-0.00012787756444617712
1728.0	-0.00015134968568783198
1726.1	-0.00015629537546903171
1724.1	-0.0001562010574533405
1722.2	-0.0001452429121387847
1720.3	-0.00010344270747039626
1718.4	-5.34464987086401e-05
1716.4	-5.202178743725957e-05
1714.5	-9.745479752448712e-05
1712.6	-0.00014119332391209006
1710.6	-0.00015651450221724087
1708.7	-0.00014151730909799716
1706.8	-0.00011084238097558598
1704.9	-7.444604551435122e-05
1702.9	-9.193445738511752e-06
1701.0	7.42346766726765e-05
1699.1	0.00012446276009941038
1697.1	0.00014458231567662382
1695.2	0.00013447167292042288
1693.3	8.508425028020062e-05
1691.4	4.84743336094732e-05
1689.4	5.362345889576531e-05
1687.5	9.909763169436178e-05
1685.6	0.00015889480044832126
1683.6	0.00015471217776911452
1681.7	8.750737780809911e-05
1679.8	4.310251449734414e-05
1677.9	4.908457677501091e-05
1675.9	6.460040446372006e-05
1674.0	5.57248184786316e-05
1672.1	4.242884849666188e-05
1670.1	3.871345451001416e-05
1668.2	1.472551045270695e-05
1666.3	-1.942999366502608e-05
1664.4	-2.5617869499537118e-05
1662.4	-2.417997660932706e-05
1660.5	-4.193333170898105e-05
1658.6	-5.228813897958188e-05
1656.6	-2.4595877393889616e-06
1654.7	0.00010068823156766243
1652.8	0.00013723663564153788
1650.9	6.360111105696586e-05
1648.9	6.184518298328525e-06
1647.0	7.943950099897575e-06
1645.1	-3.202996929974229e-06
1643.1	-3.700858632620243e-05
1641.2	-5.431331319136494e-05
1639.3	-3.5235509965401285e-05
1637.4	1.2190034598703707e-05
1635.4	3.2509297792505075e-05
1633.5	-3.0039228107793547e-06
1631.6	-4.1105482188977135e-05
1629.6	-4.858635544076798e-05
1627.7	-4.9482125627406046e-05
1625.8	-5.514644510501437e-05
1623.9	-6.495883241557429e-05
1621.9	-8.250676867599047e-05
1620.0	-7.991766970420549e-05
1618.1	-4.568621412211877e-05
1616.1	-3.9224798986404194e-05
1614.2	-8.303128015203941e-05
1612.3	-0.00012244535841333267
1610.4	-0.0001350519662784465
1608.4	-0.00014258414307294966
1606.5	-0.00015849762194824812
1604.6	-0.00017777307636080114
1602.6	-0.00019218969348472296
1600.7	-0.0002019485307733541
1598.8	-0.00020978341698747624
1596.9	-0.00021432398518590713
1594.9	-0.0002151792212855124
1593.0	-0.0002182814677647288
1591.1	-0.0002259617123921836
1589.1	-0.000230039413283953
1587.2	-0.00022756726280395695
1585.3	-0.00022467654597729158
1583.4	-0.00022244331172944788
1581.4	-0.0002181865552360996
1579.5	-0.00019378133131913653
1577.6	-0.00014745294576287704
1575.6	-0.0001323468982993033
1573.7	-0.0001576295599629649
1571.8	-0.0001629709565810633
1569.9	-0.0001522287023049559
1567.9	-0.00016667769601871253
1566.0	-0.00018928704741484332
1564.1	-0.00018088863115832567
1562.1	-0.00011190130597924094
1560.2	-1.556564494907672e-05
1558.3	0.0
1556.4	-7.462191413673807e-05
1554.4	-0.00014127927488913805
1552.5	-0.00016882539837239903
1550.6	-0.00018222787875834517
1548.6	-0.00018741142731835682
1546.7	-0.00017311958481555477
1544.8	-0.0001343220895667854
1542.9	-7.588451829832876e-05
1540.9	-2.4527523025193567e-05
1539.0	-4.2365186881731165e-05
1537.1	-0.00011666060620827443
1535.1	-0.00015808955216607386
1533.2	-0.00016058420154963204
1531.3	-0.00016756315969007363
1529.4	-0.00016989117489401106
1527.4	-0.00015262358072218709
1525.5	-0.00012627541055504126
1523.6	-9.231746016276007e-05
1521.6	-7.061045270698304e-05
1519.7	-8.384481263096341e-05
1517.8	-0.0001047123434530482
1515.9	-0.0001153013790750938
1513.9	-0.00012380712928219875
1512.0	-0.00011761684128453782
1510.1	-7.496097168753968e-05
1508.1	-8.737308123385945e-06
1506.2	5.5775936845180955e-06
1504.3	-5.7343526143950195e-05
1502.4	-0.00011469457628770531
1500.4	-0.00011502064226889531
1498.5	-8.553907216997229e-05
1496.6	-7.029770966327181e-05
1494.6	-8.388958627747185e-05
1492.7	-9.63772330783101e-05
1490.8	-8.546101067199459e-05
1488.9	-7.176907070805525e-05
1486.9	-7.317439208615569e-05
1485.0	-8.016296476779884e-05
1483.1	-8.10471419521466e-05
1481.1	-7.753531504312655e-05
1479.2	-6.916626870035574e-05
1477.3	-4.335599142341992e-05
1475.4	1.1476146386627819e-06
1473.4	3.637946493835573e-05
1471.5	3.134345304809706e-05
1469.6	8.429043418936696e-06
1467.6	2.0648896252619263e-05
1465.7	6.21293406754056e-05
1463.8	7.84011938989328e-05
1461.9	6.141420983382876e-05
1459.9	6.621649529750003e-05
1458.0	0.00010289731007260845
1456.1	8.900761658788535e-05
1454.1	-2.2890892256713846e-06
1452.2	-7.886279908386533e-05
1450.3	-7.721476536231177e-05
1448.4	-3.977102480385948e-05
1446.4	-2.8099634520734867e-05
1444.5	-4.014159154037327e-05
1442.6	-4.7082622679206666e-05
1440.6	-3.2344992934067555e-05
1438.7	7.009950782125597e-06
1436.8	3.227397787632178e-05
1434.9	1.3043647970371766e-05
1432.9	-1.2888368013254733e-05
1431.0	-1.541265045563084e-05
1429.1	-1.288780761171485e-05
1427.1	-1.622824423761026e-05
1425.2	-1.3167754982700643e-05
1423.3	3.062540811851267e-06
1421.4	3.274050972174844e-05
1419.4	5.941814726377853e-05
1417.5	5.9405491935090866e-05
1415.6	4.6238424053408693e-05
1413.6	4.8503172360021444e-05
1411.7	6.780944885726817e-05
1409.8	8.992097850981921e-05
1407.9	0.0001059921056478729
1405.9	0.00011333584620632521
1404.0	0.00010981414161103258
1402.1	0.00010386144924711268
1400.1	0.00010187241849812387
1398.2	9.572336143462792e-05
1396.3	8.667952341503827e-05
1394.4	7.689118464012469e-05
1392.4	5.885923687929438e-05
1390.5	4.408840699770968e-05
1388.6	4.4589201305979254e-05
1386.6	4.332663125578671e-05
1384.7	3.214962233809269e-05
1382.8	2.8317543004726856e-05
1380.9	3.9998382145119624e-05
1378.9	5.909375761415136e-05
1377.0	8.060875688319281e-05
1375.1	0.00010152375615223426
1373.1	0.00011790353783928658
1371.2	0.00012939167681886847
1369.3	0.00013545603040787484
1367.4	0.0001326723502753277
1365.4	0.000127516388090249
1363.5	0.0001253161249451781
1361.6	0.00012036911456556694
1359.6	0.00011267730617416304
1357.7	0.00010531245553335607
1355.8	9.361139808001559e-05
1353.9	7.84883387749135e-05
1351.9	7.035285804785341e-05
1350.0	7.048325130354271e-05
1348.1	6.86066078651138e-05
1346.1	5.943055893962282e-05
1344.2	5.028714974903757e-05
1342.3	4.9207533745918806e-05
1340.4	5.5074630865942184e-05
1338.4	5.850786511378589e-05
1336.5	5.3078495200038983e-05
1334.6	4.5527420690999465e-05
1332.6	4.5431747965498754e-05
1330.7	4.8456590809414756e-05
1328.8	4.6180839140392774e-05
1326.9	3.9033234247843674e-05
1324.9	3.170449295843282e-05
1323.0	2.856587398274938e-05
1321.1	3.155510452706983e-05
1319.1	3.6763495930997515e-05
1317.2	4.0125471468252025e-05
1315.3	4.423564641099362e-05
1313.4	4.837201890746065e-05
1311.4	4.688473758588763e-05
1309.5	4.326841771843478e-05
1307.6	4.305150333804395e-05
1305.6	4.097066419765119e-05
1303.7	3.317604892549096e-05
1301.8	2.4467063008625317e-05
1299.9	2.227664343842893e-05
1297.9	2.738113639686175e-05
1296.0	3.589041957019638e-05
1294.1	4.315688806588373e-05
1292.1	4.4325603040787485e-05
1290.2	3.9670366941182204e-05
1288.3	3.3563032990595e-05
1286.4	2.8313478875298476e-05
1284.4	2.4642517421178307e-05
1282.5	2.2747307636080114e-05
1280.6	2.201407338823644e-05
1278.6	1.8733531504312657e-05
1276.7	1.2421704595292627e-05
1274.8	1.1514073388236442e-05
1272.9	1.7209283173334632e-05
1270.9	2.0669606744310706e-05
1269.0	2.1491905852541298e-05
1267.1	2.5016451439988313e-05
1265.1	2.764324350665172e-05
1263.2	2.8347736465084553e-05
1261.3	2.8680078943521276e-05
1259.4	2.7665113785877883e-05
1257.4	2.5036669752936015e-05
1255.5	2.2351634910579403e-05
1253.6	1.9571093026655623e-05
1251.6	1.5709117489401107e-05
1249.7	1.4061512596852005e-05
1247.8	2.1649685687831986e-05
1245.9	3.411615418351933e-05
1243.9	3.8365708298815856e-05
1242.0	3.2686818381170514e-05
1240.1	2.9751040397641446e-05
1238.1	3.45344232737196e-05
1236.2	3.915358413332684e-05
1234.3	3.8232176794503193e-05
1232.4	3.2520052629014184e-05
1230.4	2.2017508893328782e-05
1228.5	9.372447736465087e-06
1226.6	1.3440037035232222e-06
1224.6	2.4938550752887304e-06
1222.7	1.2274991472150484e-05
1220.8	2.4211066712148527e-05
1218.9	2.9241757224306804e-05
1216.9	2.3865113785877885e-05
1215.0	1.563891623215243e-05
1213.1	1.3945952926270649e-05
1211.1	2.078876760391794e-05
1209.2	3.1532176794503186e-05
1207.3	3.363501778665757e-05
1205.4	2.63468446956776e-05
1203.4	2.2456127869012236e-05
1201.5	2.3379781687052287e-05
1199.6	2.270373276156133e-05
1197.6	1.877783246430486e-05
1195.7	1.1242054480775789e-05
1193.8	9.107694556795496e-07
1191.9	-1.2605847668242287e-05
1189.9	-2.6948365089420593e-05
1188.0	-3.559117976706788e-05
1186.1	-3.327515715608401e-05
1184.1	-2.3298348033721552e-05
1182.2	-1.5745489985868143e-05
1180.3	-1.9687710150577462e-05
1178.4	-3.5630393255689293e-05
1176.4	-5.299596998196968e-05
1174.5	-5.9632045221967746e-05
1172.6	-5.3451206081574976e-05
1170.6	-4.476557672628039e-05
1168.7	-4.283742994980751e-05
1166.8	-4.113039325568929e-05
1164.9	-3.2413478875298474e-05
1162.9	-2.532305930510209e-05
1161.0	-2.5892071536474832e-05
1159.1	-2.8315130841576918e-05
1157.1	-2.5352560791384433e-05
1155.2	-1.2329204229813359e-05
1153.3	3.6577798352906794e-06
1151.4	8.583680132547147e-06
1149.4	4.673602650942927e-07
1147.5	-9.330987768627258e-06
1145.6	-1.661136396861751e-05
1143.6	-2.629084839920082e-05
1141.7	-3.488007894352128e-05
1139.8	-3.7354344330198335e-05
1137.9	-4.2087281321573023e-05
1135.9	-5.219520978509819e-05
1134.0	-5.943832171921446e-05
1132.1	-6.075434433019833e-05
1130.1	-5.9984737585887624e-05
1128.2	-6.116333024706399e-05
1126.3	-6.826557672628039e-05
1124.4	-7.910105745334048e-05
1122.4	-8.911826909020029e-05
1120.5	-9.916871497490377e-05
1118.6	-0.00010559207153647484
1116.6	-0.00010047036694118221
1114.7	-8.646108376784757e-05
1112.8	-7.503069051215827e-05
1110.9	-7.598397738901614e-05
1108.9	-8.564370644705424e-05
1107.0	-9.653548072706008e-05
1105.1	-0.00010592216753569514
1103.1	-0.00010783594366746261
1101.2	-0.00010489851371765508
1099.3	-0.00010880165196627845
1097.4	-0.00011428982505725841
1095.4	-0.00010854416938745676
1093.5	-9.424611861020417e-05
1091.6	-7.967965011451683e-05
1089.6	-7.615434433019834e-05
1087.7	-8.996197553725454e-05
1085.8	-0.00010287125871058914
1083.9	-9.993518347059111e-05
1081.9	-9.20681204619658e-05
1080.0	-8.66106378831441e-05
1078.1	-8.349402075922226e-05
1076.1	-9.592246479216414e-05
1074.2	-0.00012465001705569905
1072.3	-0.00013997532284001752
1070.4	-0.00012724013936942644
1068.4	-0.00010823624092393159
1066.5	-0.00010576019199844061
1064.6	-0.00011481288436236051
1062.6	-0.00012335854003216217
1060.7	-0.00012894641586667316
1058.8	-0.00012969596998196967
1056.9	-0.00012760016568393352
1054.9	-0.0001283184347741338
1053.0	-0.0001303871497490376
1051.1	-0.00012818744700550654
1049.1	-0.000126313941815701
1047.2	-0.00013399283173334633
1045.3	-0.00014496947517177525
1043.4	-0.0001453979192047171
1041.4	-0.0001390685834023683
1039.5	-0.0001330111008235466
1037.6	-0.00012388969348472295
1035.6	-0.00011271364455923201
1033.7	-0.00010222157302275718
1031.8	-8.903174796549875e-05
1029.9	-7.339567272550071e-05
1027.9	-6.069986842746454e-05
1026.0	-5.6937892890210025e-05
1024.1	-5.5233697188246186e-05
1022.1	-4.988952780078944e-05
1020.2	-5.336871497490376e-05
1018.3	-6.148054188392379e-05
1016.4	-6.10303932556893e-05
1014.4	-5.985883728863116e-05
1012.5	-6.150165196627846e-05
1010.6	-6.606812046196578e-05
1008.6	-8.382411675844256e-05
1006.7	-0.00010932996442668486
1004.8	-0.00012939838214511964
1002.9	-0.00014020991179767068
1000.9	-0.00014465242921884896
999.0	-0.00014773746406120559
997.1	-0.0001508624725890551
995.1	-0.00015117849520003898
993.2	-0.00014471651966278446
991.3	-0.0001365258028361191
989.4	-0.00013648553189415718
987.4	-0.00013797938696944595
985.5	-0.0001396202524243458
983.6	-0.0001473196579114078
981.6	-0.000150902743531017
979.7	-0.00014703852151454606
977.8	-0.00014680439549729545
975.9	-0.00014932012085181032
973.9	-0.0001486958725208323
972.0	-0.0001483809073631889
970.1	-0.0001544566590322109
968.1	-0.0001628428829004434
966.2	-0.0001620265630329906
964.3	-0.00015439243701573994
962.4	-0.00014857268164319477
960.4	-0.00014118315384240533
958.5	-0.0001381584425710248
956.6	-0.0001510939232980849
954.6	-0.00015984228838750546
952.7	-0.00014854364309731493
950.8	-0.00013640337215535303
948.9	-0.00013318959602358558
946.9	-0.00012409019053652356
945.0	-0.00011202940402514497
943.1	-0.0001113756542078846
941.1	-0.0001130804444227864
939.2	-0.00010772296184396471
937.3	-0.00010483733248867014
935.4	-0.00010434241996004093
933.4	-9.875454412552995e-05
931.5	-9.561143219141366e-05
929.6	-0.00010817056673651381
927.6	-0.0001244187661420009
925.7	-0.00012327938696944592
923.8	-0.0001110250426392476
921.9	-0.00010321291847375858
919.9	-9.992923834121144e-05
918.0	-0.00010056276984552411
916.1	-0.00010497129282198723
914.1	-0.00011104179133570487
912.2	-0.00011696349593099752
910.3	-0.00011513700112080308
908.4	-0.00010846035768237416
906.4	-9.788880171531601e-05
904.5	-7.695421275766287e-05
902.6	-6.0629204229813364e-05
900.6	-6.071648555138639e-05
898.7	-6.360766531845425e-05
896.8	-5.2958111203157736e-05
894.9	-3.4629204229813355e-05
892.9	-1.6004195701963842e-05
891.0	5.31407338823644e-06
889.1	1.8520218312947712e-05
887.1	9.912884362360506e-06
885.2	-2.1339213488621414e-05
883.3	-5.2139808001559374e-05
881.4	-5.19838117050826e-05
879.4	-3.6350577457238937e-05
877.5	-3.1940699770966334e-05
875.6	-3.8295341357633646e-05
873.6	-3.942543735685395e-05
871.7	-1.3812421421957995e-05
869.8	1.8369606744310705e-05
867.9	1.3215856927050344e-05
865.9	-1.869567272550071e-05
864.0	-4.0933399931777205e-05
862.1	-4.817905560157887e-05
860.1	-3.771017494274158e-05
858.2	-9.567491837629751e-06
856.3	5.494483699624769e-06
854.4	-1.4903435505092346e-05
852.4	-4.5344763900394714e-05
850.5	-4.59974562643146e-05
848.6	-1.925074314117246e-05
846.6	-1.2388470347448954e-05
844.7	-4.134641586667316e-05
842.8	-6.091962380000975e-05
840.9	-5.425943180156912e-05
838.9	-5.1804624530968276e-05
837.0	-6.138860191998441e-05
835.1	-7.84420544807758e-05
833.1	-0.00011737604892549096
831.2	-0.00017194641586667315
829.3	-0.00020683310267530821
827.4	-0.00021545586472394133
825.4	-0.0002137426831051118
823.5	-0.00020376752594902784
821.6	-0.0001969784610886409
819.6	-0.00019572203596315968
817.7	-0.0001941422542761074
815.8	-0.00020320872277179475
813.9	-0.00022418790994590905
811.9	-0.0002475513717655085
810.0	-0.00026878384581648074
808.1	-0.0002997938891866868
806.1	-0.0003319046927537644
804.2	-0.0003232277520588665
802.3	-0.00030348209638906485
800.4	-0.00033548226207299835
