3997.9	-0.0000084
3996.0	-0.0000091
3994.1	0.0000070
3992.1	0.0000208
3990.2	0.0000161
3988.3	0.0000078
3986.3	0.0000065
3984.4	-0.0000007
3982.5	-0.0000110
3980.6	-0.0000091
3978.6	0.0000079
3976.7	0.0000236
3974.8	0.0000230
3972.8	0.0000120
3970.9	0.0000048
3969.0	0.0000026
3967.1	0.0000065
3965.1	0.0000171
3963.2	0.0000220
3961.3	0.0000164
3959.3	0.0000121
3957.4	0.0000135
3955.5	0.0000162
3953.6	0.0000154
3951.6	0.0000104
3949.7	0.0000036
3947.8	0.0000019
3945.8	0.0000077
3943.9	0.0000118
3942.0	0.0000064
3940.1	-0.0000028
3938.1	-0.0000048
3936.2	0.0000083
3934.3	0.0000231
3932.3	0.0000217
3930.4	0.0000150
3928.5	0.0000161
3926.6	0.0000139
3924.6	0.0000044
3922.7	-0.0000005
3920.8	0.0000027
3918.8	0.0000101
3916.9	0.0000175
3915.0	0.0000198
3913.1	0.0000194
3911.1	0.0000189
3909.2	0.0000170
3907.3	0.0000140
3905.3	0.0000122
3903.4	0.0000059
3901.5	0.0000045
3899.6	0.0000155
3897.6	0.0000230
3895.7	0.0000141
3893.8	-0.0000034
3891.8	-0.0000129
3889.9	-0.0000103
3888.0	-0.0000070
3886.1	-0.0000092
3884.1	-0.0000089
3882.2	-0.0000020
3880.3	0.0000048
3878.3	0.0000092
3876.4	0.0000111
3874.5	0.0000056
3872.6	0.0000016
3870.6	0.0000087
3868.7	0.0000094
3866.8	-0.0000075
3864.8	-0.0000250
3862.9	-0.0000308
3861.0	-0.0000316
3859.1	-0.0000303
3857.1	-0.0000155
3855.2	0.0000169
3853.3	0.0000464
3851.3	0.0000463
3849.4	0.0000277
3847.5	0.0000148
3845.6	0.0000083
3843.6	0.0000118
3841.7	0.0000229
3839.8	0.0000264
3837.8	0.0000157
3835.9	0.0000025
3834.0	-0.0000031
3832.1	-0.0000015
3830.1	0.0000043
3828.2	0.0000150
3826.3	0.0000255
3824.3	0.0000240
3822.4	0.0000155
3820.5	0.0000149
3818.6	0.0000244
3816.6	0.0000358
3814.7	0.0000371
3812.8	0.0000289
3810.8	0.0000233
3808.9	0.0000283
3807.0	0.0000420
3805.1	0.0000482
3803.1	0.0000343
3801.2	0.0000139
3799.3	0.0000072
3797.3	0.0000208
3795.4	0.0000460
3793.5	0.0000695
3791.6	0.0000878
3789.6	0.0000938
3787.7	0.0000777
3785.8	0.0000610
3783.8	0.0000567
3781.9	0.0000531
3780.0	0.0000486
3778.1	0.0000496
3776.1	0.0000485
3774.2	0.0000453
3772.3	0.0000504
3770.3	0.0000572
3768.4	0.0000487
3766.5	0.0000229
3764.6	-0.0000065
3762.6	-0.0000186
3760.7	-0.0000135
3758.8	-0.0000131
3756.8	-0.0000215
3754.9	-0.0000256
3753.0	-0.0000176
3751.1	-0.0000018
3749.1	0.0000056
3747.2	0.0000019
3745.3	-0.0000074
3743.3	-0.0000255
3741.4	-0.0000438
3739.5	-0.0000396
3737.6	-0.0000154
3735.6	-0.0000004
3733.7	-0.0000086
3731.8	-0.0000169
3729.8	-0.0000089
3727.9	-0.0000003
3726.0	0.0000004
3724.1	0.0000047
3722.1	0.0000168
3720.2	0.0000259
3718.3	0.0000275
3716.3	0.0000285
3714.4	0.0000290
3712.5	0.0000257
3710.6	0.0000256
3708.6	0.0000349
3706.7	0.0000438
3704.8	0.0000379
3702.8	0.0000273
3700.9	0.0000332
3699.0	0.0000537
3697.1	0.0000693
3695.1	0.0000711
3693.2	0.0000682
3691.3	0.0000641
3689.3	0.0000610
3687.4	0.0000598
3685.5	0.0000538
3683.6	0.0000448
3681.6	0.0000468
3679.7	0.0000740
3677.8	0.0001170
3675.8	0.0001324
3673.9	0.0000988
3672.0	0.0000560
3670.1	0.0000423
3668.1	0.0000478
3666.2	0.0000566
3664.3	0.0000718
3662.3	0.0000893
3660.4	0.0000902
3658.5	0.0000789
3656.6	0.0000688
3654.6	0.0000669
3652.7	0.0000753
3650.8	0.0000898
3648.8	0.0000958
3646.9	0.0000870
3645.0	0.0000711
3643.1	0.0000581
3641.1	0.0000520
3639.2	0.0000508
3637.3	0.0000494
3635.3	0.0000403
3633.4	0.0000303
3631.5	0.0000325
3629.6	0.0000353
3627.6	0.0000231
3625.7	0.0000106
3623.8	0.0000101
3621.8	0.0000147
3619.9	0.0000186
3618.0	0.0000221
3616.1	0.0000255
3614.1	0.0000290
3612.2	0.0000365
3610.3	0.0000476
3608.3	0.0000447
3606.4	0.0000217
3604.5	0.0000035
3602.6	0.0000040
3600.6	0.0000074
3598.7	0.0000083
3596.8	0.0000167
3594.8	0.0000288
3592.9	0.0000364
3591.0	0.0000444
3589.1	0.0000514
3587.1	0.0000475
3585.2	0.0000355
3583.3	0.0000239
3581.3	0.0000136
3579.4	0.0000105
3577.5	0.0000203
3575.6	0.0000300
3573.6	0.0000291
3571.7	0.0000291
3569.8	0.0000362
3567.8	0.0000412
3565.9	0.0000314
3564.0	0.0000088
3562.1	-0.0000098
3560.1	-0.0000107
3558.2	0.0000010
3556.3	0.0000117
3554.3	0.0000177
3552.4	0.0000197
3550.5	0.0000148
3548.6	0.0000089
3546.6	0.0000118
3544.7	0.0000181
3542.8	0.0000225
3540.8	0.0000311
3538.9	0.0000425
3537.0	0.0000456
3535.1	0.0000358
3533.1	0.0000229
3531.2	0.0000177
3529.3	0.0000198
3527.3	0.0000159
3525.4	0.0000089
3523.5	0.0000155
3521.6	0.0000260
3519.6	0.0000260
3517.7	0.0000242
3515.8	0.0000238
3513.8	0.0000141
3511.9	0.0000008
3510.0	-0.0000008
3508.1	0.0000003
3506.1	-0.0000001
3504.2	0.0000070
3502.3	0.0000163
3500.3	0.0000147
3498.4	0.0000043
3496.5	-0.0000030
3494.6	0.0000046
3492.6	0.0000261
3490.7	0.0000423
3488.8	0.0000382
3486.8	0.0000272
3484.9	0.0000266
3483.0	0.0000316
3481.1	0.0000297
3479.1	0.0000231
3477.2	0.0000206
3475.3	0.0000186
3473.3	0.0000064
3471.4	-0.0000110
3469.5	-0.0000163
3467.6	-0.0000072
3465.6	0.0000043
3463.7	0.0000156
3461.8	0.0000229
3459.8	0.0000126
3457.9	-0.0000092
3456.0	-0.0000135
3454.1	0.0000046
3452.1	0.0000250
3450.2	0.0000374
3448.3	0.0000466
3446.3	0.0000463
3444.4	0.0000304
3442.5	0.0000082
3440.6	-0.0000087
3438.6	-0.0000102
3436.7	0.0000075
3434.8	0.0000296
3432.8	0.0000399
3430.9	0.0000389
3429.0	0.0000363
3427.1	0.0000365
3425.1	0.0000349
3423.2	0.0000253
3421.3	0.0000133
3419.3	0.0000067
3417.4	0.0000082
3415.5	0.0000142
3413.6	0.0000175
3411.6	0.0000143
3409.7	0.0000141
3407.8	0.0000182
3405.8	0.0000146
3403.9	-0.0000001
3402.0	-0.0000164
3400.1	-0.0000228
3398.1	-0.0000081
3396.2	0.0000006
3394.3	0.0000010
3392.3	0.0000024
3390.4	0.0000102
3388.5	0.0000249
3386.6	0.0000378
3384.6	0.0000403
3382.7	0.0000319
3380.8	0.0000258
3378.8	0.0000246
3376.9	0.0000157
3375.0	-0.0000007
3373.1	-0.0000071
3371.1	0.0000022
3369.2	0.0000127
3367.3	0.0000144
3365.3	0.0000113
3363.4	0.0000023
3361.5	-0.0000117
3359.6	-0.0000238
3357.6	-0.0000300
3355.7	-0.0000218
3353.8	0.0000027
3351.8	0.0000268
3349.9	0.0000322
3348.0	0.0000233
3346.1	0.0000166
3344.1	0.0000124
3342.2	0.0000044
3340.3	-0.0000061
3338.3	-0.0000164
3336.4	-0.0000219
3334.5	-0.0000166
3332.6	-0.0000054
3330.6	0.0000029
3328.7	0.0000012
3326.8	-0.0000085
3324.8	-0.0000203
3322.9	-0.0000247
3321.0	-0.0000150
3319.1	-0.0000029
3317.1	-0.0000012
3315.2	0.0000005
3313.3	0.0000036
3311.3	0.0000010
3309.4	-0.0000008
3307.5	0.0000015
3305.6	0.0000019
3303.6	0.0000011
3301.7	0.0000035
3299.8	0.0000070
3297.8	0.0000135
3295.9	0.0000224
3294.0	0.0000271
3292.1	0.0000236
3290.1	0.0000156
3288.2	0.0000123
3286.3	0.0000135
3284.3	0.0000083
3282.4	-0.0000084
3280.5	-0.0000195
3278.6	-0.0000098
3276.6	0.0000143
3274.7	0.0000381
3272.8	0.0000502
3270.8	0.0000492
3268.9	0.0000472
3267.0	0.0000489
3265.1	0.0000452
3263.1	0.0000388
3261.2	0.0000339
3259.3	0.0000283
3257.3	0.0000259
3255.4	0.0000272
3253.5	0.0000301
3251.6	0.0000306
3249.6	0.0000232
3247.7	0.0000119
3245.8	0.0000118
3243.8	0.0000235
3241.9	0.0000352
3240.0	0.0000403
3238.1	0.0000385
3236.1	0.0000299
3234.2	0.0000235
3232.3	0.0000255
3230.3	0.0000287
3228.4	0.0000288
3226.5	0.0000302
3224.6	0.0000331
3222.6	0.0000376
3220.7	0.0000394
3218.8	0.0000386
3216.8	0.0000458
3214.9	0.0000536
3213.0	0.0000446
3211.1	0.0000294
3209.1	0.0000294
3207.2	0.0000407
3205.3	0.0000482
3203.3	0.0000502
3201.4	0.0000486
3199.5	0.0000478
3197.6	0.0000526
3195.6	0.0000546
3193.7	0.0000415
3191.8	0.0000254
3189.8	0.0000261
3187.9	0.0000371
3186.0	0.0000420
3184.1	0.0000387
3182.1	0.0000316
3180.2	0.0000289
3178.3	0.0000364
3176.3	0.0000451
3174.4	0.0000462
3172.5	0.0000415
3170.6	0.0000320
3168.6	0.0000255
3166.7	0.0000307
3164.8	0.0000421
3162.8	0.0000477
3160.9	0.0000446
3159.0	0.0000369
3157.1	0.0000287
3155.1	0.0000221
3153.2	0.0000187
3151.3	0.0000205
3149.3	0.0000256
3147.4	0.0000267
3145.5	0.0000273
3143.6	0.0000355
3141.6	0.0000416
3139.7	0.0000312
3137.8	0.0000086
3135.8	-0.0000046
3133.9	0.0000031
3132.0	0.0000148
3130.1	0.0000173
3128.1	0.0000197
3126.2	0.0000319
3124.3	0.0000431
3122.3	0.0000433
3120.4	0.0000362
3118.5	0.0000315
3116.6	0.0000310
3114.6	0.0000332
3112.7	0.0000285
3110.8	0.0000139
3108.8	0.0000084
3106.9	0.0000198
3105.0	0.0000320
3103.1	0.0000277
3101.1	0.0000133
3099.2	0.0000047
3097.3	0.0000054
3095.3	0.0000070
3093.4	0.0000018
3091.5	-0.0000019
3089.6	0.0000055
3087.6	0.0000197
3085.7	0.0000234
3083.8	0.0000126
3081.8	0.0000010
3079.9	-0.0000001
3078.0	0.0000083
3076.1	0.0000144
3074.1	0.0000098
3072.2	-0.0000033
3070.3	-0.0000069
3068.3	0.0000043
3066.4	0.0000156
3064.5	0.0000162
3062.6	0.0000106
3060.6	0.0000045
3058.7	0.0000050
3056.8	0.0000100
3054.8	0.0000123
3052.9	0.0000110
3051.0	0.0000093
3049.1	0.0000056
3047.1	-0.0000010
3045.2	-0.0000039
3043.3	-0.0000038
3041.3	-0.0000021
3039.4	-0.0000052
3037.5	-0.0000099
3035.6	-0.0000087
3033.6	-0.0000074
3031.7	-0.0000102
3029.8	-0.0000090
3027.8	0.0000009
3025.9	0.0000110
3024.0	0.0000149
3022.1	0.0000256
3020.1	0.0000624
3018.2	0.0001135
3016.3	0.0001302
3014.3	0.0000971
3012.4	0.0000534
3010.5	0.0000249
3008.6	0.0000034
3006.6	-0.0000139
3004.7	-0.0000178
3002.8	-0.0000144
3000.8	-0.0000162
2998.9	-0.0000131
2997.0	-0.0000160
2995.1	-0.0000137
2993.1	-0.0000191
2991.2	-0.0000244
2989.3	-0.0000154
2987.3	-0.0000021
2985.4	0.0000020
2983.5	0.0000024
2981.6	0.0000019
2979.6	-0.0000101
2977.7	-0.0000278
2975.8	-0.0000312
2973.8	-0.0000223
2971.9	-0.0000191
2970.0	-0.0000210
2968.1	-0.0000154
2966.1	-0.0000085
2964.2	-0.0000092
2962.3	-0.0000102
2960.3	-0.0000040
2958.4	0.0000060
2956.5	0.0000107
2954.6	0.0000086
2952.6	0.0000044
2950.7	-0.0000031
2948.8	-0.0000097
2946.8	-0.0000075
2944.9	-0.0000003
2943.0	0.0000074
2941.1	0.0000169
2939.1	0.0000275
2937.2	0.0000341
2935.3	0.0000376
2933.3	0.0000427
2931.4	0.0000385
2929.5	0.0000197
2927.6	0.0000055
2925.6	0.0000019
2923.7	-0.0000020
2921.8	-0.0000025
2919.8	0.0000048
2917.9	0.0000115
2916.0	0.0000123
2914.1	0.0000067
2912.1	-0.0000018
2910.2	-0.0000057
2908.3	-0.0000072
2906.3	-0.0000093
2904.4	-0.0000088
2902.5	-0.0000066
2900.6	-0.0000041
2898.6	-0.0000006
2896.7	0.0000019
2894.8	0.0000031
2892.8	0.0000050
2890.9	0.0000054
2889.0	0.0000029
2887.1	0.0000024
2885.1	0.0000037
2883.2	0.0000014
2881.3	-0.0000030
2879.3	-0.0000039
2877.4	-0.0000032
2875.5	-0.0000047
2873.6	-0.0000076
2871.6	-0.0000089
2869.7	-0.0000084
2867.8	-0.0000070
2865.8	-0.0000030
2863.9	0.0000071
2862.0	0.0000168
2860.1	0.0000165
2858.1	0.0000091
2856.2	0.0000032
2854.3	0.0000010
2852.3	0.0000035
2850.4	0.0000086
2848.5	0.0000091
2846.6	0.0000023
2844.6	-0.0000079
2842.7	-0.0000149
2840.8	-0.0000145
2838.8	-0.0000077
2836.9	-0.0000009
2835.0	-0.0000008
2833.1	-0.0000031
2831.1	-0.0000026
2829.2	-0.0000024
2827.3	-0.0000030
2825.3	-0.0000022
2823.4	-0.0000023
2821.5	-0.0000024
2819.6	0.0000018
2817.6	0.0000090
2815.7	0.0000097
2813.8	0.0000010
2811.8	-0.0000107
2809.9	-0.0000175
2808.0	-0.0000173
2806.1	-0.0000161
2804.1	-0.0000139
2802.2	-0.0000073
2800.3	-0.0000037
2798.3	-0.0000087
2796.4	-0.0000121
2794.5	-0.0000049
2792.6	0.0000071
2790.6	0.0000128
2788.7	0.0000086
2786.8	0.0000046
2784.8	0.0000081
2782.9	0.0000086
2781.0	0.0000013
2779.1	-0.0000038
2777.1	-0.0000049
2775.2	-0.0000081
2773.3	-0.0000098
2771.3	-0.0000026
2769.4	0.0000068
2767.5	0.0000074
2765.6	0.0000047
2763.6	0.0000043
2761.7	0.0000001
2759.8	-0.0000114
2757.8	-0.0000238
2755.9	-0.0000261
2754.0	-0.0000159
2752.1	-0.0000062
2750.1	-0.0000075
2748.2	-0.0000092
2746.3	-0.0000018
2744.3	0.0000051
2742.4	0.0000028
2740.5	-0.0000033
2738.6	-0.0000040
2736.6	0.0000018
2734.7	0.0000080
2732.8	0.0000092
2730.8	0.0000074
2728.9	0.0000057
2727.0	0.0000029
2725.1	0.0000003
2723.1	-0.0000030
2721.2	-0.0000074
2719.3	-0.0000063
2717.3	0.0000021
2715.4	0.0000081
2713.5	0.0000033
2711.6	-0.0000058
2709.6	-0.0000074
2707.7	-0.0000030
2705.8	-0.0000009
2703.8	-0.0000042
2701.9	-0.0000094
2700.0	-0.0000116
2698.1	-0.0000112
2696.1	-0.0000101
2694.2	-0.0000090
2692.3	-0.0000107
2690.3	-0.0000114
2688.4	-0.0000083
2686.5	-0.0000073
2684.6	-0.0000092
2682.6	-0.0000094
2680.7	-0.0000060
2678.8	0.0000003
2676.8	0.0000039
2674.9	0.0000014
2673.0	-0.0000052
2671.1	-0.0000139
2669.1	-0.0000170
2667.2	-0.0000113
2665.3	-0.0000096
2663.3	-0.0000129
2661.4	-0.0000084
2659.5	-0.0000006
2657.6	0.0000016
2655.6	0.0000040
2653.7	0.0000045
2651.8	-0.0000046
2649.8	-0.0000130
2647.9	-0.0000095
2646.0	0.0000000
2644.1	0.0000046
2642.1	0.0000015
2640.2	-0.0000055
2638.3	-0.0000113
2636.3	-0.0000110
2634.4	-0.0000072
2632.5	-0.0000093
2630.6	-0.0000164
2628.6	-0.0000175
2626.7	-0.0000125
2624.8	-0.0000112
2622.8	-0.0000147
2620.9	-0.0000174
2619.0	-0.0000185
2617.1	-0.0000186
2615.1	-0.0000200
2613.2	-0.0000207
2611.3	-0.0000180
2609.3	-0.0000145
2607.4	-0.0000106
2605.5	-0.0000100
2603.6	-0.0000153
2601.6	-0.0000197
2599.7	-0.0000210
2597.8	-0.0000239
2595.8	-0.0000260
2593.9	-0.0000190
2592.0	-0.0000062
2590.1	0.0000006
2588.1	0.0000006
2586.2	-0.0000040
2584.3	-0.0000128
2582.3	-0.0000160
2580.4	-0.0000106
2578.5	-0.0000110
2576.6	-0.0000200
2574.6	-0.0000231
2572.7	-0.0000169
2570.8	-0.0000139
2568.8	-0.0000215
2566.9	-0.0000309
2565.0	-0.0000350
2563.1	-0.0000373
2561.1	-0.0000353
2559.2	-0.0000278
2557.3	-0.0000237
2555.3	-0.0000262
2553.4	-0.0000270
2551.5	-0.0000205
2549.6	-0.0000134
2547.6	-0.0000157
2545.7	-0.0000198
2543.8	-0.0000151
2541.8	-0.0000120
2539.9	-0.0000165
2538.0	-0.0000188
2536.1	-0.0000147
2534.1	-0.0000099
2532.2	-0.0000084
2530.3	-0.0000065
2528.3	0.0000011
2526.4	0.0000089
2524.5	0.0000104
2522.6	0.0000063
2520.6	0.0000006
2518.7	-0.0000047
2516.8	-0.0000080
2514.8	-0.0000057
2512.9	-0.0000003
2511.0	-0.0000011
2509.1	-0.0000067
2507.1	-0.0000075
2505.2	-0.0000078
2503.3	-0.0000138
2501.3	-0.0000139
2499.4	-0.0000057
2497.5	-0.0000050
2495.6	-0.0000119
2493.6	-0.0000106
2491.7	-0.0000051
2489.8	-0.0000063
2487.8	-0.0000081
2485.9	-0.0000051
2484.0	-0.0000027
2482.1	-0.0000048
2480.1	-0.0000095
2478.2	-0.0000108
2476.3	-0.0000100
2474.3	-0.0000118
2472.4	-0.0000126
2470.5	-0.0000079
2468.6	-0.0000009
2466.6	0.0000026
2464.7	0.0000026
2462.8	0.0000066
2460.8	0.0000133
2458.9	0.0000116
2457.0	0.0000034
2455.1	-0.0000007
2453.1	0.0000019
2451.2	0.0000100
2449.3	0.0000139
2447.3	0.0000089
2445.4	0.0000065
2443.5	0.0000076
2441.6	0.0000070
2439.6	0.0000116
2437.7	0.0000168
2435.8	0.0000140
2433.8	0.0000082
2431.9	0.0000011
2430.0	-0.0000060
2428.1	-0.0000059
2426.1	0.0000002
2424.2	0.0000029
2422.3	0.0000009
2420.3	0.0000065
2418.4	0.0000226
2416.5	0.0000349
2414.6	0.0000361
2412.6	0.0000297
2410.7	0.0000197
2408.8	0.0000131
2406.8	0.0000133
2404.9	0.0000179
2403.0	0.0000200
2401.1	0.0000145
2399.1	0.0000065
2397.2	0.0000012
2395.3	-0.0000028
2393.3	-0.0000017
2391.4	0.0000084
2389.5	0.0000206
2387.6	0.0000260
2385.6	0.0000262
2383.7	0.0000286
2381.8	0.0000317
2379.8	0.0000240
2377.9	0.0000074
2376.0	-0.0000017
2374.1	-0.0000045
2372.1	-0.0000191
2370.2	-0.0000402
2368.3	-0.0000474
2366.3	-0.0000474
2364.4	-0.0000574
2362.5	-0.0000710
2360.6	-0.0000743
2358.6	-0.0000692
2356.7	-0.0000607
2354.8	-0.0000459
2352.8	-0.0000306
2350.9	-0.0000222
2349.0	-0.0000169
2347.1	-0.0000143
2345.1	-0.0000169
2343.2	-0.0000237
2341.3	-0.0000305
2339.3	-0.0000289
2337.4	-0.0000192
2335.5	-0.0000123
2333.6	-0.0000104
2331.6	-0.0000063
2329.7	-0.0000011
2327.8	0.0000005
2325.8	-0.0000008
2323.9	-0.0000004
2322.0	0.0000015
2320.1	-0.0000024
2318.1	-0.0000053
2316.2	0.0000076
2314.3	0.0000289
2312.3	0.0000398
2310.4	0.0000410
2308.5	0.0000412
2306.6	0.0000382
2304.6	0.0000310
2302.7	0.0000260
2300.8	0.0000288
2298.8	0.0000412
2296.9	0.0000519
2295.0	0.0000504
2293.1	0.0000428
2291.1	0.0000361
2289.2	0.0000289
2287.3	0.0000231
2285.3	0.0000223
2283.4	0.0000253
2281.5	0.0000277
2279.6	0.0000269
2277.6	0.0000261
2275.7	0.0000239
2273.8	0.0000174
2271.8	0.0000169
2269.9	0.0000236
2268.0	0.0000290
2266.1	0.0000361
2264.1	0.0000446
2262.2	0.0000462
2260.3	0.0000410
2258.3	0.0000371
2256.4	0.0000369
2254.5	0.0000364
2252.6	0.0000325
2250.6	0.0000268
2248.7	0.0000226
2246.8	0.0000188
2244.8	0.0000175
2242.9	0.0000223
2241.0	0.0000297
2239.1	0.0000371
2237.1	0.0000399
2235.2	0.0000381
2233.3	0.0000364
2231.3	0.0000330
2229.4	0.0000298
2227.5	0.0000309
2225.6	0.0000309
2223.6	0.0000261
2221.7	0.0000234
2219.8	0.0000251
2217.8	0.0000233
2215.9	0.0000153
2214.0	0.0000080
2212.1	0.0000053
2210.1	0.0000062
2208.2	0.0000096
2206.3	0.0000130
2204.3	0.0000186
2202.4	0.0000259
2200.5	0.0000255
2198.6	0.0000152
2196.6	0.0000068
2194.7	0.0000097
2192.8	0.0000177
2190.8	0.0000189
2188.9	0.0000153
2187.0	0.0000142
2185.1	0.0000131
2183.1	0.0000107
2181.2	0.0000119
2179.3	0.0000123
2177.3	0.0000063
2175.4	0.0000023
2173.5	0.0000055
2171.6	0.0000096
2169.6	0.0000114
2167.7	0.0000121
2165.8	0.0000123
2163.8	0.0000141
2161.9	0.0000202
2160.0	0.0000280
2158.1	0.0000288
2156.1	0.0000179
2154.2	0.0000042
2152.3	-0.0000027
2150.3	-0.0000029
2148.4	0.0000004
2146.5	0.0000050
2144.6	0.0000100
2142.6	0.0000127
2140.7	0.0000117
2138.8	0.0000067
2136.8	-0.0000040
2134.9	-0.0000133
2133.0	-0.0000124
2131.1	-0.0000074
2129.1	-0.0000056
2127.2	-0.0000041
2125.3	-0.0000006
2123.3	0.0000023
2121.4	0.0000028
2119.5	0.0000023
2117.6	0.0000031
2115.6	0.0000050
2113.7	0.0000072
2111.8	0.0000065
2109.8	0.0000024
2107.9	0.0000017
2106.0	0.0000070
2104.1	0.0000174
2102.1	0.0000301
2100.2	0.0000440
2098.3	0.0000889
2096.3	0.0001032
2094.4	0.0001361
2092.5	0.0002349
2090.6	0.0004383
2088.6	0.0007326
2086.7	0.0010217
2084.8	0.0011961
2082.8	0.0012092
2080.9	0.0010719
2079.0	0.0008397
2077.1	0.0005994
2075.1	0.0004134
2073.2	0.0002937
2071.3	0.0002244
2069.3	0.0001849
2067.4	0.0001638
2065.5	0.0001534
2063.6	0.0001412
2061.6	0.0001211
2059.7	0.0001004
2057.8	0.0000864
2055.8	0.0000759
2053.9	0.0000682
2052.0	0.0000711
2050.1	0.0000815
2048.1	0.0000794
2046.2	0.0000579
2044.3	0.0000329
2042.3	0.0000178
2040.4	0.0000121
2038.5	0.0000125
2036.6	0.0000175
2034.6	0.0000227
2032.7	0.0000264
2030.8	0.0000355
2028.8	0.0000406
2026.9	0.0000283
2025.0	0.0000108
2023.1	0.0000033
2021.1	0.0000042
2019.2	0.0000048
2017.3	-0.0000010
2015.3	-0.0000084
2013.4	-0.0000089
2011.5	-0.0000060
2009.6	-0.0000095
2007.6	-0.0000163
2005.7	-0.0000171
2003.8	-0.0000106
2001.8	-0.0000018
1999.9	0.0000032
1998.0	0.0000057
1996.1	0.0000085
1994.1	0.0000079
1992.2	0.0000043
1990.3	0.0000033
1988.3	0.0000051
1986.4	0.0000061
1984.5	0.0000067
1982.6	0.0000093
1980.6	0.0000118
1978.7	0.0000106
1976.8	0.0000065
1974.8	0.0000058
1972.9	0.0000105
1971.0	0.0000113
1969.1	-0.0000000
1967.1	-0.0000172
1965.2	-0.0000292
1963.3	-0.0000132
1961.4	0.0000493
1959.4	0.0001093
1957.5	0.0000910
1955.6	0.0000206
1953.6	-0.0000196
1951.7	-0.0000177
1949.8	-0.0000105
1947.9	-0.0000135
1945.9	-0.0000156
1944.0	-0.0000091
1942.1	-0.0000027
1940.1	-0.0000002
1938.2	0.0000059
1936.3	0.0000151
1934.4	0.0000175
1932.4	0.0000132
1930.5	0.0000114
1928.6	0.0000133
1926.6	0.0000120
1924.7	0.0000064
1922.8	0.0000048
1920.9	0.0000086
1918.9	0.0000114
1917.0	0.0000111
1915.1	0.0000098
1913.1	0.0000072
1911.2	0.0000035
1909.3	0.0000025
1907.4	0.0000045
1905.4	0.0000074
1903.5	0.0000125
1901.6	0.0000193
1899.6	0.0000233
1897.7	0.0000205
1895.8	0.0000138
1893.9	0.0000102
1891.9	0.0000134
1890.0	0.0000220
1888.1	0.0000343
1886.1	0.0000473
1884.2	0.0000592
1882.3	0.0000662
1880.4	0.0000598
1878.4	0.0000462
1876.5	0.0000444
1874.6	0.0000524
1872.6	0.0000558
1870.7	0.0000552
1868.8	0.0000546
1866.9	0.0000496
1864.9	0.0000459
1863.0	0.0000495
1861.1	0.0000532
1859.1	0.0000511
1857.2	0.0000484
1855.3	0.0000476
1853.4	0.0000458
1851.4	0.0000439
1849.5	0.0000452
1847.6	0.0000504
1845.6	0.0000564
1843.7	0.0000590
1841.8	0.0000550
1839.9	0.0000474
1837.9	0.0000401
1836.0	0.0000370
1834.1	0.0000389
1832.1	0.0000432
1830.2	0.0000445
1828.3	0.0000399
1826.4	0.0000333
1824.4	0.0000335
1822.5	0.0000437
1820.6	0.0000577
1818.6	0.0000640
1816.7	0.0000594
1814.8	0.0000505
1812.9	0.0000449
1810.9	0.0000460
1809.0	0.0000535
1807.1	0.0000632
1805.1	0.0000689
1803.2	0.0000687
1801.3	0.0000668
1799.4	0.0000654
1797.4	0.0000616
1795.5	0.0000520
1793.6	0.0000436
1791.6	0.0000472
1789.7	0.0000580
1787.8	0.0000672
1785.9	0.0000721
1783.9	0.0000717
1782.0	0.0000694
1780.1	0.0000693
1778.1	0.0000695
1776.2	0.0000724
1774.3	0.0000829
1772.4	0.0000958
1770.4	0.0001000
1768.5	0.0000925
1766.6	0.0000778
1764.6	0.0000612
1762.7	0.0000484
1760.8	0.0000433
1758.9	0.0000433
1756.9	0.0000410
1755.0	0.0000337
1753.1	0.0000256
1751.1	0.0000215
1749.2	0.0000207
1747.3	0.0000203
1745.4	0.0000245
1743.4	0.0000379
1741.5	0.0000588
1739.6	0.0000822
1737.6	0.0001089
1735.7	0.0001339
1733.8	0.0001464
1731.9	0.0001481
1729.9	0.0001480
1728.0	0.0001463
1726.1	0.0001379
1724.1	0.0001188
1722.2	0.0000940
1720.3	0.0000759
1718.4	0.0000704
1716.4	0.0000668
1714.5	0.0000530
1712.6	0.0000409
1710.6	0.0000474
1708.7	0.0000645
1706.8	0.0000742
1704.9	0.0000682
1702.9	0.0000553
1701.0	0.0000448
1699.1	0.0000291
1697.1	0.0000016
1695.2	-0.0000319
1693.3	-0.0000635
1691.4	-0.0000804
1689.4	-0.0000736
1687.5	-0.0000563
1685.6	-0.0000456
1683.6	-0.0000432
1681.7	-0.0000431
1679.8	-0.0000355
1677.9	-0.0000166
1675.9	0.0000038
1674.0	0.0000154
1672.1	0.0000200
1670.1	0.0000236
1668.2	0.0000254
1666.3	0.0000228
1664.4	0.0000181
1662.4	0.0000170
1660.5	0.0000241
1658.6	0.0000378
1656.6	0.0000536
1654.7	0.0000659
1652.8	0.0000650
1650.9	0.0000384
1648.9	-0.0000046
1647.0	-0.0000458
1645.1	-0.0000843
1643.1	-0.0001224
1641.2	-0.0001461
1639.3	-0.0001450
1637.4	-0.0001229
1635.4	-0.0000992
1633.5	-0.0000836
1631.6	-0.0000669
1629.6	-0.0000415
1627.7	-0.0000093
1625.8	0.0000205
1623.9	0.0000360
1621.9	0.0000356
1620.0	0.0000297
1618.1	0.0000268
1616.1	0.0000314
1614.2	0.0000475
1612.3	0.0000712
1610.4	0.0000914
1608.4	0.0001010
1606.5	0.0001003
1604.6	0.0000965
1602.6	0.0001068
1600.7	0.0001466
1598.8	0.0002000
1596.9	0.0002291
1594.9	0.0002228
1593.0	0.0002006
1591.1	0.0001780
1589.1	0.0001549
1587.2	0.0001310
1585.3	0.0001144
1583.4	0.0001141
1581.4	0.0001298
1579.5	0.0001548
1577.6	0.0001778
1575.6	0.0001810
1573.7	0.0001586
1571.8	0.0001325
1569.9	0.0001236
1567.9	0.0001310
1566.0	0.0001447
1564.1	0.0001529
1562.1	0.0001495
1560.2	0.0001375
1558.3	0.0001164
1556.4	0.0000891
1554.4	0.0000714
1552.5	0.0000719
1550.6	0.0000868
1548.6	0.0001070
1546.7	0.0001314
1544.8	0.0001722
1542.9	0.0002338
1540.9	0.0002960
1539.0	0.0003207
1537.1	0.0002870
1535.1	0.0002137
1533.2	0.0001308
1531.3	0.0000485
1529.4	-0.0000337
1527.4	-0.0001164
1525.5	-0.0001948
1523.6	-0.0002600
1521.6	-0.0003137
1519.7	-0.0003464
1517.8	-0.0002974
1515.9	-0.0001059
1513.9	0.0002162
1512.0	0.0005719
1510.1	0.0008401
1508.1	0.0009646
1506.2	0.0009800
1504.3	0.0009365
1502.4	0.0008392
1500.4	0.0006664
1498.5	0.0004331
1496.6	0.0002026
1494.6	0.0000299
1492.7	-0.0000692
1490.8	-0.0001051
1488.9	-0.0000873
1486.9	-0.0000239
1485.0	0.0000770
1483.1	0.0001857
1481.1	0.0002665
1479.2	0.0003174
1477.3	0.0003565
1475.4	0.0003934
1473.4	0.0004426
1471.5	0.0005062
1469.6	0.0005489
1467.6	0.0005468
1465.7	0.0005193
1463.8	0.0004940
1461.9	0.0004731
1459.9	0.0004492
1458.0	0.0004263
1456.1	0.0004071
1454.1	0.0003907
1452.2	0.0003867
1450.3	0.0003984
1448.4	0.0004038
1446.4	0.0003823
1444.5	0.0003460
1442.6	0.0003299
1440.6	0.0003555
1438.7	0.0004096
1436.8	0.0004531
1434.9	0.0004569
1432.9	0.0004266
1431.0	0.0003873
1429.1	0.0003674
1427.1	0.0003887
1425.2	0.0004481
1423.3	0.0005314
1421.4	0.0006514
1419.4	0.0008422
1417.5	0.0011121
1415.6	0.0014197
1413.6	0.0016676
1411.7	0.0017351
1409.8	0.0015666
1407.9	0.0012222
1405.9	0.0008221
1404.0	0.0004699
1402.1	0.0002225
1400.1	0.0000824
1398.2	0.0000190
1396.3	0.0000004
1394.4	0.0000081
1392.4	0.0000335
1390.5	0.0000894
1388.6	0.0002025
1386.6	0.0003706
1384.7	0.0005142
1382.8	0.0005433
1380.9	0.0004819
1378.9	0.0004171
1377.0	0.0003740
1375.1	0.0003252
1373.1	0.0002559
1371.2	0.0001787
1369.3	0.0001148
1367.4	0.0000783
1365.4	0.0000655
1363.5	0.0000637
1361.6	0.0000679
1359.6	0.0000763
1357.7	0.0000827
1355.8	0.0000880
1353.9	0.0001063
1351.9	0.0001368
1350.0	0.0001512
1348.1	0.0001389
1346.1	0.0001237
1344.2	0.0001248
1342.3	0.0001361
1340.4	0.0001437
1338.4	0.0001465
1336.5	0.0001552
1334.6	0.0001771
1332.6	0.0002051
1330.7	0.0002236
1328.8	0.0002268
1326.9	0.0002176
1324.9	0.0002002
1323.0	0.0001794
1321.1	0.0001543
1319.1	0.0001242
1317.2	0.0000980
1315.3	0.0000876
1313.4	0.0000925
1311.4	0.0000974
1309.5	0.0000949
1307.6	0.0000922
1305.6	0.0000841
1303.7	0.0000610
1301.8	0.0000355
1299.9	0.0000268
1297.9	0.0000370
1296.0	0.0000580
1294.1	0.0000794
1292.1	0.0000946
1290.2	0.0001131
1288.3	0.0001391
1286.4	0.0001593
1284.4	0.0001709
1282.5	0.0001792
1280.6	0.0001817
1278.6	0.0001764
1276.7	0.0001619
1274.8	0.0001411
1272.9	0.0001246
1270.9	0.0001186
1269.0	0.0001265
1267.1	0.0001563
1265.1	0.0002145
1263.2	0.0002904
1261.3	0.0003523
1259.4	0.0003646
1257.4	0.0003204
1255.5	0.0002411
1253.6	0.0001522
1251.6	0.0000782
1249.7	0.0000390
1247.8	0.0000299
1245.9	0.0000473
1243.9	0.0000868
1242.0	0.0001347
1240.1	0.0001718
1238.1	0.0001906
1236.2	0.0001960
1234.3	0.0001928
1232.4	0.0001795
1230.4	0.0001505
1228.5	0.0001058
1226.6	0.0000589
1224.6	0.0000249
1222.7	0.0000152
1220.8	0.0000180
1218.9	0.0000221
1216.9	0.0000315
1215.0	0.0000462
1213.1	0.0000588
1211.1	0.0000708
1209.2	0.0000806
1207.3	0.0000748
1205.4	0.0000502
1203.4	0.0000175
1201.5	0.0000024
1199.6	0.0000544
1197.6	0.0000534
1195.7	0.0000529
1193.8	0.0000537
1191.9	0.0000511
1189.9	0.0000456
1188.0	0.0000406
1186.1	0.0000402
1184.1	0.0000432
1182.2	0.0000499
1180.3	0.0000662
1178.4	0.0000779
1176.4	0.0000646
1174.5	0.0000444
1172.6	0.0000466
1170.6	0.0000578
1168.7	0.0000593
1166.8	0.0000581
1164.9	0.0000582
1162.9	0.0000627
1161.0	0.0000695
1159.1	0.0000653
1157.1	0.0000547
1155.2	0.0000527
1153.3	0.0000554
1151.4	0.0000528
1149.4	0.0000508
1147.5	0.0000579
1145.6	0.0000683
1143.6	0.0000719
1141.7	0.0000669
1139.8	0.0000606
1137.9	0.0000545
1135.9	0.0000435
1134.0	0.0000335
1132.1	0.0000339
1130.1	0.0000409
1128.2	0.0000445
1126.3	0.0000440
1124.4	0.0000463
1122.4	0.0000499
1120.5	0.0000496
1118.6	0.0000441
1116.6	0.0000391
1114.7	0.0000401
1112.8	0.0000463
1110.9	0.0000532
1108.9	0.0000531
1107.0	0.0000435
1105.1	0.0000335
1103.1	0.0000306
1101.2	0.0000258
1099.3	0.0000174
1097.4	0.0000206
1095.4	0.0000332
1093.5	0.0000365
1091.6	0.0000334
1089.6	0.0000419
1087.7	0.0000516
1085.8	0.0000372
1083.9	0.0000118
1081.9	0.0000114
1080.0	0.0000383
1078.1	0.0000675
1076.1	0.0000928
1074.2	0.0001100
1072.3	0.0001019
1070.4	0.0000754
1068.4	0.0000537
1066.5	0.0000427
1064.6	0.0000342
1062.6	0.0000281
1060.7	0.0000339
1058.8	0.0000448
1056.9	0.0000449
1054.9	0.0000356
1053.0	0.0000232
1051.1	0.0000172
1049.1	0.0000239
1047.2	0.0000314
1045.3	0.0000320
1043.4	0.0000331
1041.4	0.0000401
1039.5	0.0000491
1037.6	0.0000542
1035.6	0.0000535
1033.7	0.0000501
1031.8	0.0000506
1029.9	0.0000494
1027.9	0.0000416
1026.0	0.0000379
1024.1	0.0000466
1022.1	0.0000603
1020.2	0.0000616
1018.3	0.0000464
1016.4	0.0000296
1014.4	0.0000294
1012.5	0.0000425
1010.6	0.0000545
1008.6	0.0000713
1006.7	0.0000905
1004.8	0.0000982
1002.9	0.0000992
1000.9	0.0001032
999.0	0.0001109
997.1	0.0001155
995.1	0.0001153
993.2	0.0001174
991.3	0.0001236
989.4	0.0001283
987.4	0.0001254
985.5	0.0001202
983.6	0.0001260
981.6	0.0001320
979.7	0.0001173
977.8	0.0000975
975.9	0.0000923
973.9	0.0000907
972.0	0.0000794
970.1	0.0000662
968.1	0.0000613
966.2	0.0000585
964.3	0.0000569
962.4	0.0000650
960.4	0.0000801
958.5	0.0000837
956.6	0.0000542
954.6	0.0000150
952.7	0.0000268
950.8	0.0000686
948.9	0.0000701
946.9	0.0000735
945.0	0.0001177
943.1	0.0001414
941.1	0.0001273
939.2	0.0001081
937.3	0.0001008
935.4	0.0001056
933.4	0.0001110
931.5	0.0001007
929.6	0.0000815
927.6	0.0000773
925.7	0.0000882
923.8	0.0000989
921.9	0.0000865
919.9	0.0000602
918.0	0.0000518
916.1	0.0000602
914.1	0.0000685
912.2	0.0000686
910.3	0.0000762
908.4	0.0000899
906.4	0.0000936
904.5	0.0000864
902.6	0.0000767
900.6	0.0000661
898.7	0.0000490
896.8	0.0000332
894.9	0.0000171
892.9	0.0000039
891.0	-0.0000277
889.1	-0.0000174
887.1	0.0001029
885.2	0.0002150
883.3	0.0002857
881.4	0.0004983
879.4	0.0008683
877.5	0.0008865
875.6	0.0003910
873.6	-0.0007251
871.7	-0.0030210
869.8	-0.0045539
867.9	-0.0030936
865.9	-0.0007307
864.0	0.0002251
862.1	0.0002404
860.1	0.0000095
858.2	-0.0001563
856.3	-0.0001004
854.4	0.0000438
852.4	0.0000961
850.5	0.0000394
848.6	-0.0000275
