3997.9	0.0001119
3996.0	0.0001093
3994.1	0.0001037
3992.1	0.0001006
3990.2	0.0000992
3988.3	0.0000986
3986.3	0.0000946
3984.4	0.0000805
3982.5	0.0000710
3980.6	0.0000803
3978.6	0.0000917
3976.7	0.0000863
3974.8	0.0000719
3972.8	0.0000620
3970.9	0.0000620
3969.0	0.0000677
3967.1	0.0000724
3965.1	0.0000787
3963.2	0.0000871
3961.3	0.0000885
3959.3	0.0000794
3957.4	0.0000644
3955.5	0.0000523
3953.6	0.0000484
3951.6	0.0000506
3949.7	0.0000535
3947.8	0.0000545
3945.8	0.0000541
3943.9	0.0000556
3942.0	0.0000587
3940.1	0.0000515
3938.1	0.0000299
3936.2	0.0000174
3934.3	0.0000252
3932.3	0.0000305
3930.4	0.0000171
3928.5	-0.0000053
3926.6	-0.0000225
3924.6	-0.0000252
3922.7	-0.0000120
3920.8	0.0000038
3918.8	0.0000118
3916.9	0.0000128
3915.0	0.0000127
3913.1	0.0000166
3911.1	0.0000152
3909.2	0.0000027
3907.3	-0.0000102
3905.3	-0.0000167
3903.4	-0.0000216
3901.5	-0.0000184
3899.6	-0.0000035
3897.6	0.0000102
3895.7	0.0000106
3893.8	0.0000016
3891.8	-0.0000060
3889.9	-0.0000137
3888.0	-0.0000282
3886.1	-0.0000448
3884.1	-0.0000514
3882.2	-0.0000422
3880.3	-0.0000202
3878.3	0.0000029
3876.4	0.0000095
3874.5	-0.0000015
3872.6	-0.0000095
3870.6	-0.0000090
3868.7	-0.0000222
3866.8	-0.0000483
3864.8	-0.0000580
3862.9	-0.0000453
3861.0	-0.0000314
3859.1	-0.0000240
3857.1	-0.0000175
3855.2	-0.0000075
3853.3	0.0000016
3851.3	-0.0000056
3849.4	-0.0000221
3847.5	-0.0000255
3845.6	-0.0000192
3843.6	-0.0000144
3841.7	-0.0000152
3839.8	-0.0000203
3837.8	-0.0000263
3835.9	-0.0000301
3834.0	-0.0000286
3832.1	-0.0000171
3830.1	0.0000032
3828.2	0.0000232
3826.3	0.0000289
3824.3	0.0000107
3822.4	-0.0000135
3820.5	-0.0000214
3818.6	-0.0000141
3816.6	0.0000061
3814.7	0.0000281
3812.8	0.0000290
3810.8	0.0000165
3808.9	0.0000152
3807.0	0.0000246
3805.1	0.0000276
3803.1	0.0000213
3801.2	0.0000211
3799.3	0.0000277
3797.3	0.0000279
3795.4	0.0000261
3793.5	0.0000363
3791.6	0.0000545
3789.6	0.0000641
3787.7	0.0000590
3785.8	0.0000518
3783.8	0.0000473
3781.9	0.0000435
3780.0	0.0000461
3778.1	0.0000498
3776.1	0.0000407
3774.2	0.0000330
3772.3	0.0000395
3770.3	0.0000432
3768.4	0.0000316
3766.5	0.0000126
3764.6	-0.0000046
3762.6	-0.0000107
3760.7	-0.0000012
3758.8	0.0000111
3756.8	0.0000087
3754.9	-0.0000099
3753.0	-0.0000246
3751.1	-0.0000186
3749.1	-0.0000090
3747.2	-0.0000129
3745.3	-0.0000190
3743.3	-0.0000220
3741.4	-0.0000271
3739.5	-0.0000230
3737.6	-0.0000092
3735.6	-0.0000078
3733.7	-0.0000240
3731.8	-0.0000371
3729.8	-0.0000342
3727.9	-0.0000249
3726.0	-0.0000214
3724.1	-0.0000219
3722.1	-0.0000151
3720.2	-0.0000007
3718.3	0.0000113
3716.3	0.0000196
3714.4	0.0000257
3712.5	0.0000279
3710.6	0.0000337
3708.6	0.0000449
3706.7	0.0000452
3704.8	0.0000303
3702.8	0.0000186
3700.9	0.0000203
3699.0	0.0000307
3697.1	0.0000389
3695.1	0.0000337
3693.2	0.0000232
3691.3	0.0000213
3689.3	0.0000327
3687.4	0.0000510
3685.5	0.0000591
3683.6	0.0000497
3681.6	0.0000400
3679.7	0.0000497
3677.8	0.0000723
3675.8	0.0000828
3673.9	0.0000664
3672.0	0.0000283
3670.1	-0.0000047
3668.1	-0.0000042
3666.2	0.0000246
3664.3	0.0000536
3662.3	0.0000695
3660.4	0.0000707
3658.5	0.0000645
3656.6	0.0000567
3654.6	0.0000471
3652.7	0.0000401
3650.8	0.0000460
3648.8	0.0000568
3646.9	0.0000581
3645.0	0.0000460
3643.1	0.0000258
3641.1	0.0000139
3639.2	0.0000224
3637.3	0.0000394
3635.3	0.0000380
3633.4	0.0000174
3631.5	0.0000038
3629.6	0.0000080
3627.6	0.0000147
3625.7	0.0000111
3623.8	-0.0000005
3621.8	-0.0000079
3619.9	-0.0000009
3618.0	0.0000156
3616.1	0.0000312
3614.1	0.0000415
3612.2	0.0000439
3610.3	0.0000391
3608.3	0.0000279
3606.4	0.0000117
3604.5	-0.0000017
3602.6	-0.0000055
3600.6	-0.0000036
3598.7	-0.0000004
3596.8	0.0000037
3594.8	0.0000087
3592.9	0.0000184
3591.0	0.0000339
3589.1	0.0000417
3587.1	0.0000309
3585.2	0.0000165
3583.3	0.0000184
3581.3	0.0000311
3579.4	0.0000368
3577.5	0.0000357
3575.6	0.0000349
3573.6	0.0000345
3571.7	0.0000420
3569.8	0.0000516
3567.8	0.0000458
3565.9	0.0000274
3564.0	0.0000103
3562.1	0.0000013
3560.1	0.0000042
3558.2	0.0000138
3556.3	0.0000180
3554.3	0.0000171
3552.4	0.0000155
3550.5	0.0000106
3548.6	0.0000077
3546.6	0.0000121
3544.7	0.0000111
3542.8	0.0000057
3540.8	0.0000165
3538.9	0.0000396
3537.0	0.0000485
3535.1	0.0000360
3533.1	0.0000191
3531.2	0.0000116
3529.3	0.0000116
3527.3	0.0000075
3525.4	0.0000010
3523.5	0.0000071
3521.6	0.0000216
3519.6	0.0000307
3517.7	0.0000335
3515.8	0.0000325
3513.8	0.0000267
3511.9	0.0000205
3510.0	0.0000246
3508.1	0.0000350
3506.1	0.0000394
3504.2	0.0000416
3502.3	0.0000444
3500.3	0.0000351
3498.4	0.0000140
3496.5	0.0000018
3494.6	0.0000104
3492.6	0.0000291
3490.7	0.0000390
3488.8	0.0000359
3486.8	0.0000305
3484.9	0.0000272
3483.0	0.0000242
3481.1	0.0000187
3479.1	0.0000135
3477.2	0.0000144
3475.3	0.0000213
3473.3	0.0000255
3471.4	0.0000243
3469.5	0.0000231
3467.6	0.0000192
3465.6	0.0000141
3463.7	0.0000236
3461.8	0.0000403
3459.8	0.0000379
3457.9	0.0000213
3456.0	0.0000190
3454.1	0.0000318
3452.1	0.0000419
3450.2	0.0000500
3448.3	0.0000625
3446.3	0.0000649
3444.4	0.0000508
3442.5	0.0000366
3440.6	0.0000317
3438.6	0.0000334
3436.7	0.0000406
3434.8	0.0000509
3432.8	0.0000599
3430.9	0.0000624
3429.0	0.0000572
3427.1	0.0000535
3425.1	0.0000534
3423.2	0.0000484
3421.3	0.0000395
3419.3	0.0000319
3417.4	0.0000311
3415.5	0.0000397
3413.6	0.0000448
3411.6	0.0000362
3409.7	0.0000286
3407.8	0.0000336
3405.8	0.0000415
3403.9	0.0000437
3402.0	0.0000402
3400.1	0.0000349
3398.1	0.0000392
3396.2	0.0000380
3394.3	0.0000292
3392.3	0.0000227
3390.4	0.0000269
3388.5	0.0000374
3386.6	0.0000395
3384.6	0.0000342
3382.7	0.0000286
3380.8	0.0000221
3378.8	0.0000158
3376.9	0.0000104
3375.0	0.0000045
3373.1	0.0000073
3371.1	0.0000202
3369.2	0.0000247
3367.3	0.0000132
3365.3	0.0000002
3363.4	-0.0000082
3361.5	-0.0000179
3359.6	-0.0000285
3357.6	-0.0000334
3355.7	-0.0000298
3353.8	-0.0000191
3351.8	-0.0000051
3349.9	0.0000010
3348.0	-0.0000060
3346.1	-0.0000147
3344.1	-0.0000154
3342.2	-0.0000095
3340.3	-0.0000061
3338.3	-0.0000117
3336.4	-0.0000186
3334.5	-0.0000188
3332.6	-0.0000148
3330.6	-0.0000106
3328.7	-0.0000139
3326.8	-0.0000266
3324.8	-0.0000396
3322.9	-0.0000465
3321.0	-0.0000500
3319.1	-0.0000519
3317.1	-0.0000469
3315.2	-0.0000335
3313.3	-0.0000233
3311.3	-0.0000235
3309.4	-0.0000220
3307.5	-0.0000107
3305.6	-0.0000067
3303.6	-0.0000168
3301.7	-0.0000253
3299.8	-0.0000282
3297.8	-0.0000255
3295.9	-0.0000141
3294.0	-0.0000026
3292.1	-0.0000049
3290.1	-0.0000219
3288.2	-0.0000356
3286.3	-0.0000321
3284.3	-0.0000223
3282.4	-0.0000261
3280.5	-0.0000352
3278.6	-0.0000283
3276.6	-0.0000083
3274.7	0.0000072
3272.8	0.0000113
3270.8	0.0000072
3268.9	0.0000012
3267.0	-0.0000043
3265.1	-0.0000084
3263.1	-0.0000047
3261.2	0.0000007
3259.3	-0.0000005
3257.3	0.0000012
3255.4	0.0000053
3253.5	0.0000014
3251.6	-0.0000065
3249.6	-0.0000063
3247.7	0.0000018
3245.8	0.0000098
3243.8	0.0000131
3241.9	0.0000140
3240.0	0.0000128
3238.1	0.0000069
3236.1	-0.0000043
3234.2	-0.0000125
3232.3	-0.0000105
3230.3	-0.0000045
3228.4	-0.0000030
3226.5	-0.0000049
3224.6	-0.0000044
3222.6	0.0000006
3220.7	0.0000016
3218.8	-0.0000055
3216.8	-0.0000078
3214.9	-0.0000043
3213.0	-0.0000101
3211.1	-0.0000214
3209.1	-0.0000235
3207.2	-0.0000163
3205.3	-0.0000100
3203.3	-0.0000089
3201.4	-0.0000095
3199.5	-0.0000069
3197.6	-0.0000008
3195.6	0.0000015
3193.7	-0.0000116
3191.8	-0.0000337
3189.8	-0.0000449
3187.9	-0.0000419
3186.0	-0.0000346
3184.1	-0.0000280
3182.1	-0.0000222
3180.2	-0.0000157
3178.3	-0.0000097
3176.3	-0.0000067
3174.4	-0.0000056
3172.5	-0.0000096
3170.6	-0.0000226
3168.6	-0.0000320
3166.7	-0.0000247
3164.8	-0.0000107
3162.8	-0.0000054
3160.9	-0.0000087
3159.0	-0.0000175
3157.1	-0.0000298
3155.1	-0.0000373
3153.2	-0.0000360
3151.3	-0.0000291
3149.3	-0.0000200
3147.4	-0.0000112
3145.5	-0.0000029
3143.6	0.0000050
3141.6	0.0000104
3139.7	0.0000109
3137.8	0.0000054
3135.8	0.0000002
3133.9	0.0000031
3132.0	0.0000058
3130.1	0.0000013
3128.1	0.0000019
3126.2	0.0000126
3124.3	0.0000181
3122.3	0.0000157
3120.4	0.0000141
3118.5	0.0000176
3116.6	0.0000226
3114.6	0.0000257
3112.7	0.0000293
3110.8	0.0000377
3108.8	0.0000481
3106.9	0.0000506
3105.0	0.0000453
3103.1	0.0000375
3101.1	0.0000328
3099.2	0.0000339
3097.3	0.0000376
3095.3	0.0000401
3093.4	0.0000414
3091.5	0.0000474
3089.6	0.0000615
3087.6	0.0000802
3085.7	0.0000950
3083.8	0.0001005
3081.8	0.0000982
3079.9	0.0000965
3078.0	0.0001014
3076.1	0.0001112
3074.1	0.0001181
3072.2	0.0001183
3070.3	0.0001261
3068.3	0.0001432
3066.4	0.0001516
3064.5	0.0001479
3062.6	0.0001453
3060.6	0.0001456
3058.7	0.0001430
3056.8	0.0001357
3054.8	0.0001335
3052.9	0.0001414
3051.0	0.0001464
3049.1	0.0001413
3047.1	0.0001353
3045.2	0.0001383
3043.3	0.0001479
3041.3	0.0001543
3039.4	0.0001493
3037.5	0.0001394
3035.6	0.0001337
3033.6	0.0001300
3031.7	0.0001269
3029.8	0.0001272
3027.8	0.0001297
3025.9	0.0001295
3024.0	0.0001265
3022.1	0.0001266
3020.1	0.0001394
3018.2	0.0001621
3016.3	0.0001708
3014.3	0.0001496
3012.4	0.0001172
3010.5	0.0000993
3008.6	0.0000908
3006.6	0.0000728
3004.7	0.0000482
3002.8	0.0000289
3000.8	0.0000175
2998.9	0.0000170
2997.0	0.0000130
2995.1	0.0000141
2993.1	0.0000129
2991.2	0.0000072
2989.3	0.0000019
2987.3	-0.0000013
2985.4	-0.0000043
2983.5	-0.0000103
2981.6	-0.0000153
2979.6	-0.0000185
2977.7	-0.0000236
2975.8	-0.0000273
2973.8	-0.0000327
2971.9	-0.0000434
2970.0	-0.0000474
2968.1	-0.0000431
2966.1	-0.0000409
2964.2	-0.0000397
2962.3	-0.0000390
2960.3	-0.0000425
2958.4	-0.0000487
2956.5	-0.0000514
2954.6	-0.0000443
2952.6	-0.0000387
2950.7	-0.0000458
2948.8	-0.0000495
2946.8	-0.0000417
2944.9	-0.0000372
2943.0	-0.0000407
2941.1	-0.0000430
2939.1	-0.0000359
2937.2	-0.0000272
2935.3	-0.0000283
2933.3	-0.0000336
2931.4	-0.0000348
2929.5	-0.0000357
2927.6	-0.0000362
2925.6	-0.0000325
2923.7	-0.0000235
2921.8	-0.0000073
2919.8	0.0000076
2917.9	0.0000094
2916.0	0.0000078
2914.1	0.0000121
2912.1	0.0000166
2910.2	0.0000200
2908.3	0.0000240
2906.3	0.0000292
2904.4	0.0000360
2902.5	0.0000400
2900.6	0.0000412
2898.6	0.0000435
2896.7	0.0000463
2894.8	0.0000510
2892.8	0.0000595
2890.9	0.0000665
2889.0	0.0000691
2887.1	0.0000726
2885.1	0.0000750
2883.2	0.0000688
2881.3	0.0000610
2879.3	0.0000621
2877.4	0.0000679
2875.5	0.0000743
2873.6	0.0000810
2871.6	0.0000839
2869.7	0.0000840
2867.8	0.0000863
2865.8	0.0000922
2863.9	0.0000998
2862.0	0.0001045
2860.1	0.0001032
2858.1	0.0000979
2856.2	0.0000976
2854.3	0.0001070
2852.3	0.0001175
2850.4	0.0001167
2848.5	0.0001083
2846.6	0.0001065
2844.6	0.0001108
2842.7	0.0001120
2840.8	0.0001097
2838.8	0.0001094
2836.9	0.0001108
2835.0	0.0001103
2833.1	0.0001156
2831.1	0.0001272
2829.2	0.0001300
2827.3	0.0001267
2825.3	0.0001288
2823.4	0.0001305
2821.5	0.0001240
2819.6	0.0001171
2817.6	0.0001194
2815.7	0.0001246
2813.8	0.0001207
2811.8	0.0001100
2809.9	0.0001067
2808.0	0.0001122
2806.1	0.0001129
2804.1	0.0001056
2802.2	0.0000975
2800.3	0.0000896
2798.3	0.0000814
2796.4	0.0000795
2794.5	0.0000868
2792.6	0.0000977
2790.6	0.0001072
2788.7	0.0001106
2786.8	0.0001087
2784.8	0.0001050
2782.9	0.0000988
2781.0	0.0000925
2779.1	0.0000937
2777.1	0.0000992
2775.2	0.0000977
2773.3	0.0000885
2771.3	0.0000815
2769.4	0.0000801
2767.5	0.0000794
2765.6	0.0000793
2763.6	0.0000802
2761.7	0.0000784
2759.8	0.0000697
2757.8	0.0000568
2755.9	0.0000492
2754.0	0.0000504
2752.1	0.0000567
2750.1	0.0000608
2748.2	0.0000582
2746.3	0.0000542
2744.3	0.0000537
2742.4	0.0000511
2740.5	0.0000432
2738.6	0.0000375
2736.6	0.0000370
2734.7	0.0000369
2732.8	0.0000360
2730.8	0.0000356
2728.9	0.0000328
2727.0	0.0000287
2725.1	0.0000293
2723.1	0.0000318
2721.2	0.0000294
2719.3	0.0000257
2717.3	0.0000245
2715.4	0.0000256
2713.5	0.0000299
2711.6	0.0000344
2709.6	0.0000306
2707.7	0.0000214
2705.8	0.0000197
2703.8	0.0000213
2701.9	0.0000175
2700.0	0.0000160
2698.1	0.0000195
2696.1	0.0000179
2694.2	0.0000100
2692.3	0.0000003
2690.3	-0.0000063
2688.4	-0.0000027
2686.5	0.0000051
2684.6	0.0000029
2682.6	-0.0000041
2680.7	-0.0000008
2678.8	0.0000065
2676.8	0.0000035
2674.9	-0.0000035
2673.0	-0.0000055
2671.1	-0.0000077
2669.1	-0.0000108
2667.2	-0.0000072
2665.3	-0.0000018
2663.3	0.0000003
2661.4	0.0000080
2659.5	0.0000183
2657.6	0.0000165
2655.6	0.0000064
2653.7	-0.0000018
2651.8	-0.0000079
2649.8	-0.0000151
2647.9	-0.0000228
2646.0	-0.0000228
2644.1	-0.0000129
2642.1	-0.0000063
2640.2	-0.0000114
2638.3	-0.0000206
2636.3	-0.0000238
2634.4	-0.0000206
2632.5	-0.0000174
2630.6	-0.0000174
2628.6	-0.0000169
2626.7	-0.0000130
2624.8	-0.0000105
2622.8	-0.0000117
2620.9	-0.0000135
2619.0	-0.0000176
2617.1	-0.0000243
2615.1	-0.0000282
2613.2	-0.0000262
2611.3	-0.0000224
2609.3	-0.0000231
2607.4	-0.0000257
2605.5	-0.0000253
2603.6	-0.0000221
2601.6	-0.0000184
2599.7	-0.0000194
2597.8	-0.0000260
2595.8	-0.0000299
2593.9	-0.0000251
2592.0	-0.0000163
2590.1	-0.0000123
2588.1	-0.0000118
2586.2	-0.0000116
2584.3	-0.0000137
2582.3	-0.0000159
2580.4	-0.0000148
2578.5	-0.0000146
2576.6	-0.0000193
2574.6	-0.0000237
2572.7	-0.0000217
2570.8	-0.0000183
2568.8	-0.0000226
2566.9	-0.0000316
2565.0	-0.0000340
2563.1	-0.0000269
2561.1	-0.0000183
2559.2	-0.0000166
2557.3	-0.0000200
2555.3	-0.0000228
2553.4	-0.0000223
2551.5	-0.0000182
2549.6	-0.0000136
2547.6	-0.0000112
2545.7	-0.0000073
2543.8	-0.0000003
2541.8	0.0000043
2539.9	0.0000054
2538.0	0.0000026
2536.1	-0.0000060
2534.1	-0.0000139
2532.2	-0.0000129
2530.3	-0.0000046
2528.3	0.0000028
2526.4	0.0000073
2524.5	0.0000133
2522.6	0.0000186
2520.6	0.0000177
2518.7	0.0000146
2516.8	0.0000169
2514.8	0.0000235
2512.9	0.0000243
2511.0	0.0000196
2509.1	0.0000218
2507.1	0.0000318
2505.2	0.0000341
2503.3	0.0000243
2501.3	0.0000193
2499.4	0.0000282
2497.5	0.0000368
2495.6	0.0000358
2493.6	0.0000368
2491.7	0.0000435
2489.8	0.0000450
2487.8	0.0000406
2485.9	0.0000415
2484.0	0.0000510
2482.1	0.0000584
2480.1	0.0000539
2478.2	0.0000467
2476.3	0.0000457
2474.3	0.0000484
2472.4	0.0000510
2470.5	0.0000506
2468.6	0.0000492
2466.6	0.0000495
2464.7	0.0000517
2462.8	0.0000624
2460.8	0.0000753
2458.9	0.0000734
2457.0	0.0000618
2455.1	0.0000552
2453.1	0.0000541
2451.2	0.0000569
2449.3	0.0000629
2447.3	0.0000681
2445.4	0.0000702
2443.5	0.0000698
2441.6	0.0000692
2439.6	0.0000705
2437.7	0.0000687
2435.8	0.0000632
2433.8	0.0000625
2431.9	0.0000670
2430.0	0.0000708
2428.1	0.0000717
2426.1	0.0000737
2424.2	0.0000775
2422.3	0.0000762
2420.3	0.0000730
2418.4	0.0000775
2416.5	0.0000859
2414.6	0.0000887
2412.6	0.0000834
2410.7	0.0000774
2408.8	0.0000782
2406.8	0.0000815
2404.9	0.0000823
2403.0	0.0000802
2401.1	0.0000740
2399.1	0.0000700
2397.2	0.0000691
2395.3	0.0000631
2393.3	0.0000571
2391.4	0.0000581
2389.5	0.0000620
2387.6	0.0000681
2385.6	0.0000727
2383.7	0.0000705
2381.8	0.0000650
2379.8	0.0000576
2377.9	0.0000470
2376.0	0.0000391
2374.1	0.0000403
2372.1	0.0000448
2370.2	0.0000455
2368.3	0.0000459
2366.3	0.0000421
2364.4	0.0000298
2362.5	0.0000203
2360.6	0.0000198
2358.6	0.0000188
2356.7	0.0000132
2354.8	0.0000106
2352.8	0.0000154
2350.9	0.0000235
2349.0	0.0000272
2347.1	0.0000191
2345.1	0.0000040
2343.2	-0.0000065
2341.3	-0.0000064
2339.3	0.0000035
2337.4	0.0000179
2335.5	0.0000286
2333.6	0.0000292
2331.6	0.0000196
2329.7	0.0000090
2327.8	0.0000057
2325.8	0.0000048
2323.9	0.0000027
2322.0	0.0000051
2320.1	0.0000088
2318.1	0.0000067
2316.2	0.0000057
2314.3	0.0000140
2312.3	0.0000226
2310.4	0.0000241
2308.5	0.0000247
2306.6	0.0000269
2304.6	0.0000261
2302.7	0.0000261
2300.8	0.0000298
2298.8	0.0000301
2296.9	0.0000249
2295.0	0.0000206
2293.1	0.0000201
2291.1	0.0000196
2289.2	0.0000164
2287.3	0.0000125
2285.3	0.0000068
2283.4	0.0000038
2281.5	0.0000104
2279.6	0.0000216
2277.6	0.0000278
2275.7	0.0000233
2273.8	0.0000107
2271.8	0.0000023
2269.9	0.0000049
2268.0	0.0000148
2266.1	0.0000273
2264.1	0.0000367
2262.2	0.0000381
2260.3	0.0000322
2258.3	0.0000260
2256.4	0.0000263
2254.5	0.0000302
2252.6	0.0000294
2250.6	0.0000243
2248.7	0.0000223
2246.8	0.0000242
2244.8	0.0000285
2242.9	0.0000342
2241.0	0.0000402
2239.1	0.0000458
2237.1	0.0000491
2235.2	0.0000499
2233.3	0.0000500
2231.3	0.0000502
2229.4	0.0000494
2227.5	0.0000464
2225.6	0.0000441
2223.6	0.0000458
2221.7	0.0000480
2219.8	0.0000463
2217.8	0.0000417
2215.9	0.0000387
2214.0	0.0000399
2212.1	0.0000440
2210.1	0.0000496
2208.2	0.0000558
2206.3	0.0000584
2204.3	0.0000562
2202.4	0.0000536
2200.5	0.0000499
2198.6	0.0000455
2196.6	0.0000477
2194.7	0.0000566
2192.8	0.0000656
2190.8	0.0000701
2188.9	0.0000706
2187.0	0.0000714
2185.1	0.0000727
2183.1	0.0000735
2181.2	0.0000780
2179.3	0.0000817
2177.3	0.0000778
2175.4	0.0000730
2173.5	0.0000724
2171.6	0.0000712
2169.6	0.0000698
2167.7	0.0000706
2165.8	0.0000741
2163.8	0.0000792
2161.9	0.0000835
2160.0	0.0000890
2158.1	0.0000960
2156.1	0.0000986
2154.2	0.0000939
2152.3	0.0000854
2150.3	0.0000791
2148.4	0.0000779
2146.5	0.0000825
2144.6	0.0000955
2142.6	0.0001108
2140.7	0.0001156
2138.8	0.0001083
2136.8	0.0000980
2134.9	0.0000943
2133.0	0.0001008
2131.1	0.0001074
2129.1	0.0001071
2127.2	0.0001050
2125.3	0.0001006
2123.3	0.0000938
2121.4	0.0000937
2119.5	0.0001001
2117.6	0.0001022
2115.6	0.0000991
2113.7	0.0000984
2111.8	0.0000995
2109.8	0.0000965
2107.9	0.0000913
2106.0	0.0000892
2104.1	0.0000990
2102.1	0.0001146
2100.2	0.0001213
2098.3	0.0001413
2096.3	0.0001400
2094.4	0.0001457
2092.5	0.0001851
2090.6	0.0002824
2088.6	0.0004257
2086.7	0.0005548
2084.8	0.0006358
2082.8	0.0006873
2080.9	0.0007102
2079.0	0.0006883
2077.1	0.0006339
2075.1	0.0005725
2073.2	0.0005192
2071.3	0.0004751
2069.3	0.0004318
2067.4	0.0003861
2065.5	0.0003467
2063.6	0.0003149
2061.6	0.0002792
2059.7	0.0002390
2057.8	0.0002097
2055.8	0.0001955
2053.9	0.0001856
2052.0	0.0001779
2050.1	0.0001711
2048.1	0.0001510
2046.2	0.0001157
2044.3	0.0000819
2042.3	0.0000598
2040.4	0.0000463
2038.5	0.0000358
2036.6	0.0000272
2034.6	0.0000229
2032.7	0.0000226
2030.8	0.0000219
2028.8	0.0000120
2026.9	-0.0000025
2025.0	-0.0000063
2023.1	-0.0000010
2021.1	0.0000024
2019.2	0.0000008
2017.3	-0.0000031
2015.3	-0.0000036
2013.4	0.0000006
2011.5	0.0000038
2009.6	0.0000017
2007.6	-0.0000008
2005.7	0.0000049
2003.8	0.0000169
2001.8	0.0000222
1999.9	0.0000154
1998.0	0.0000082
1996.1	0.0000124
1994.1	0.0000209
1992.2	0.0000250
1990.3	0.0000273
1988.3	0.0000320
1986.4	0.0000398
1984.5	0.0000488
1982.6	0.0000529
1980.6	0.0000519
1978.7	0.0000491
1976.8	0.0000463
1974.8	0.0000500
1972.9	0.0000600
1971.0	0.0000631
1969.1	0.0000536
1967.1	0.0000409
1965.2	0.0000324
1963.3	0.0000426
1961.4	0.0000845
1959.4	0.0001243
1957.5	0.0001140
1955.6	0.0000766
1953.6	0.0000603
1951.7	0.0000604
1949.8	0.0000568
1947.9	0.0000508
1945.9	0.0000481
1944.0	0.0000498
1942.1	0.0000546
1940.1	0.0000606
1938.2	0.0000666
1936.3	0.0000702
1934.4	0.0000676
1932.4	0.0000633
1930.5	0.0000658
1928.6	0.0000735
1926.6	0.0000786
1924.7	0.0000766
1922.8	0.0000700
1920.9	0.0000636
1918.9	0.0000595
1917.0	0.0000577
1915.1	0.0000580
1913.1	0.0000578
1911.2	0.0000575
1909.3	0.0000667
1907.4	0.0000909
1905.4	0.0001244
1903.5	0.0001676
1901.6	0.0002298
1899.6	0.0003089
1897.7	0.0003786
1895.8	0.0004199
1893.9	0.0004415
1891.9	0.0004506
1890.0	0.0004398
1888.1	0.0004108
1886.1	0.0003768
1884.2	0.0003492
1882.3	0.0003281
1880.4	0.0003021
1878.4	0.0002684
1876.5	0.0002417
1874.6	0.0002254
1872.6	0.0002053
1870.7	0.0001780
1868.8	0.0001541
1866.9	0.0001347
1864.9	0.0001157
1863.0	0.0000962
1861.1	0.0000784
1859.1	0.0000675
1857.2	0.0000621
1855.3	0.0000549
1853.4	0.0000507
1851.4	0.0000555
1849.5	0.0000566
1847.6	0.0000460
1845.6	0.0000362
1843.7	0.0000347
1841.8	0.0000338
1839.9	0.0000279
1837.9	0.0000196
1836.0	0.0000152
1834.1	0.0000140
1832.1	0.0000113
1830.2	0.0000075
1828.3	0.0000044
1826.4	0.0000001
1824.4	-0.0000022
1822.5	0.0000025
1820.6	0.0000116
1818.6	0.0000155
1816.7	0.0000062
1814.8	-0.0000105
1812.9	-0.0000176
1810.9	-0.0000080
1809.0	0.0000067
1807.1	0.0000138
1805.1	0.0000157
1803.2	0.0000172
1801.3	0.0000172
1799.4	0.0000138
1797.4	0.0000090
1795.5	0.0000038
1793.6	0.0000011
1791.6	0.0000072
1789.7	0.0000198
1787.8	0.0000307
1785.9	0.0000334
1783.9	0.0000237
1782.0	0.0000128
1780.1	0.0000153
1778.1	0.0000211
1776.2	0.0000198
1774.3	0.0000251
1772.4	0.0000441
1770.4	0.0000527
1768.5	0.0000366
1766.6	0.0000159
1764.6	0.0000103
1762.7	0.0000119
1760.8	0.0000046
1758.9	-0.0000093
1756.9	-0.0000168
1755.0	-0.0000214
1753.1	-0.0000332
1751.1	-0.0000412
1749.2	-0.0000346
1747.3	-0.0000285
1745.4	-0.0000352
1743.4	-0.0000475
1741.5	-0.0000514
1739.6	-0.0000400
1737.6	-0.0000206
1735.7	-0.0000122
1733.8	-0.0000179
1731.9	-0.0000202
1729.9	-0.0000134
1728.0	-0.0000114
1726.1	-0.0000202
1724.1	-0.0000345
1722.2	-0.0000528
1720.3	-0.0000719
1718.4	-0.0000787
1716.4	-0.0000764
1714.5	-0.0000861
1712.6	-0.0001058
1710.6	-0.0001130
1708.7	-0.0001048
1706.8	-0.0001004
1704.9	-0.0001161
1702.9	-0.0001411
1701.0	-0.0001567
1699.1	-0.0001729
1697.1	-0.0002023
1695.2	-0.0002336
1693.3	-0.0002581
1691.4	-0.0002728
1689.4	-0.0002818
1687.5	-0.0003008
1685.6	-0.0003209
1683.6	-0.0003131
1681.7	-0.0002803
1679.8	-0.0002444
1677.9	-0.0002081
1675.9	-0.0001702
1674.0	-0.0001443
1672.1	-0.0001376
1670.1	-0.0001359
1668.2	-0.0001279
1666.3	-0.0001247
1664.4	-0.0001323
1662.4	-0.0001331
1660.5	-0.0001212
1658.6	-0.0001175
1656.6	-0.0001294
1654.7	-0.0001414
1652.8	-0.0001483
1650.9	-0.0001655
1648.9	-0.0001963
1647.0	-0.0002306
1645.1	-0.0002639
1643.1	-0.0002975
1641.2	-0.0003239
1639.3	-0.0003272
1637.4	-0.0002982
1635.4	-0.0002603
1633.5	-0.0002393
1631.6	-0.0002226
1629.6	-0.0001921
1627.7	-0.0001559
1625.8	-0.0001321
1623.9	-0.0001245
1621.9	-0.0001230
1620.0	-0.0001269
1618.1	-0.0001409
1616.1	-0.0001544
1614.2	-0.0001522
1612.3	-0.0001398
1610.4	-0.0001343
1608.4	-0.0001367
1606.5	-0.0001337
1604.6	-0.0001201
1602.6	-0.0000961
1600.7	-0.0000585
1598.8	-0.0000169
1596.9	0.0000052
1594.9	0.0000001
1593.0	-0.0000133
1591.1	-0.0000202
1589.1	-0.0000270
1587.2	-0.0000426
1585.3	-0.0000596
1583.4	-0.0000624
1581.4	-0.0000470
1579.5	-0.0000215
1577.6	0.0000014
1575.6	0.0000069
1573.7	-0.0000062
1571.8	-0.0000191
1569.9	-0.0000201
1567.9	-0.0000094
1566.0	0.0000084
1564.1	0.0000157
1562.1	0.0000039
1560.2	-0.0000072
1558.3	-0.0000091
1556.4	-0.0000194
1554.4	-0.0000410
1552.5	-0.0000525
1550.6	-0.0000381
1548.6	-0.0000135
1546.7	0.0000010
1544.8	0.0000171
1542.9	0.0000536
1540.9	0.0001021
1539.0	0.0001282
1537.1	0.0001094
1535.1	0.0000670
1533.2	0.0000256
1531.3	-0.0000253
1529.4	-0.0000908
1527.4	-0.0001519
1525.5	-0.0001964
1523.6	-0.0002331
1521.6	-0.0002772
1519.7	-0.0003151
1517.8	-0.0002969
1515.9	-0.0001905
1513.9	-0.0000140
1512.0	0.0001782
1510.1	0.0003249
1508.1	0.0003978
1506.2	0.0004164
1504.3	0.0004037
1502.4	0.0003575
1500.4	0.0002625
1498.5	0.0001258
1496.6	-0.0000087
1494.6	-0.0001038
1492.7	-0.0001586
1490.8	-0.0001825
1488.9	-0.0001706
1486.9	-0.0001237
1485.0	-0.0000555
1483.1	0.0000068
1481.1	0.0000415
1479.2	0.0000557
1477.3	0.0000609
1475.4	0.0000571
1473.4	0.0000611
1471.5	0.0000853
1469.6	0.0001003
1467.6	0.0000807
1465.7	0.0000426
1463.8	0.0000086
1461.9	-0.0000173
1459.9	-0.0000316
1458.0	-0.0000283
1456.1	-0.0000153
1454.1	-0.0000061
1452.2	0.0000015
1450.3	0.0000139
1448.4	0.0000220
1446.4	0.0000090
1444.5	-0.0000248
1442.6	-0.0000537
1440.6	-0.0000539
1438.7	-0.0000278
1436.8	-0.0000013
1434.9	0.0000005
1432.9	-0.0000253
1431.0	-0.0000656
1429.1	-0.0001062
1427.1	-0.0001351
1425.2	-0.0001462
1423.3	-0.0001424
1421.4	-0.0001263
1419.4	-0.0001032
1417.5	-0.0000856
1415.6	-0.0000810
1413.6	-0.0000883
1411.7	-0.0001000
1409.8	-0.0001139
1407.9	-0.0001402
1405.9	-0.0001863
1404.0	-0.0002349
1402.1	-0.0002583
1400.1	-0.0002503
1398.2	-0.0002247
1396.3	-0.0001941
1394.4	-0.0001586
1392.4	-0.0001167
1390.5	-0.0000703
1388.6	-0.0000080
1386.6	0.0000881
1384.7	0.0001855
1382.8	0.0002195
1380.9	0.0001928
1378.9	0.0001565
1377.0	0.0001265
1375.1	0.0000922
1373.1	0.0000482
1371.2	-0.0000015
1369.3	-0.0000391
1367.4	-0.0000506
1365.4	-0.0000457
1363.5	-0.0000367
1361.6	-0.0000261
1359.6	-0.0000151
1357.7	-0.0000036
1355.8	0.0000125
1353.9	0.0000332
1351.9	0.0000518
1350.0	0.0000642
1348.1	0.0000710
1346.1	0.0000792
1344.2	0.0000971
1342.3	0.0001149
1340.4	0.0001166
1338.4	0.0001098
1336.5	0.0001146
1334.6	0.0001336
1332.6	0.0001534
1330.7	0.0001671
1328.8	0.0001779
1326.9	0.0001836
1324.9	0.0001763
1323.0	0.0001572
1321.1	0.0001333
1319.1	0.0001055
1317.2	0.0000775
1315.3	0.0000551
1313.4	0.0000424
1311.4	0.0000391
1309.5	0.0000386
1307.6	0.0000379
1305.6	0.0000337
1303.7	0.0000188
1301.8	-0.0000012
1299.9	-0.0000105
1297.9	0.0000012
1296.0	0.0000278
1294.1	0.0000481
1292.1	0.0000509
1290.2	0.0000555
1288.3	0.0000768
1286.4	0.0001004
1284.4	0.0001108
1282.5	0.0001075
1280.6	0.0000973
1278.6	0.0000855
1276.7	0.0000723
1274.8	0.0000610
1272.9	0.0000541
1270.9	0.0000475
1269.0	0.0000419
1267.1	0.0000459
1265.1	0.0000687
1263.2	0.0001055
1261.3	0.0001320
1259.4	0.0001258
1257.4	0.0000845
1255.5	0.0000174
1253.6	-0.0000604
1251.6	-0.0001237
1249.7	-0.0001488
1247.8	-0.0001447
1245.9	-0.0001248
1243.9	-0.0000893
1242.0	-0.0000452
1240.1	-0.0000137
1238.1	-0.0000063
1236.2	-0.0000146
1234.3	-0.0000205
1232.4	-0.0000183
1230.4	-0.0000222
1228.5	-0.0000419
1226.6	-0.0000683
1224.6	-0.0000896
1222.7	-0.0000939
1220.8	-0.0000784
1218.9	-0.0000489
1216.9	-0.0000207
1215.0	-0.0000072
1213.1	0.0000020
1211.1	0.0000262
1209.2	0.0000553
1207.3	0.0000648
1205.4	0.0000569
1203.4	0.0000471
1201.5	0.0000501
1199.6	0.0000947
1197.6	0.0001055
1195.7	0.0001209
1193.8	0.0001308
1191.9	0.0001177
1189.9	0.0000923
1188.0	0.0000768
1186.1	0.0000724
1184.1	0.0000616
1182.2	0.0000400
1180.3	0.0000262
1178.4	0.0000266
1176.4	0.0000301
1174.5	0.0000411
1172.6	0.0000651
1170.6	0.0000814
1168.7	0.0000775
1166.8	0.0000719
1164.9	0.0000794
1162.9	0.0000880
1161.0	0.0000803
1159.1	0.0000655
1157.1	0.0000638
1155.2	0.0000714
1153.3	0.0000685
1151.4	0.0000552
1149.4	0.0000485
1147.5	0.0000490
1145.6	0.0000469
1143.6	0.0000440
1141.7	0.0000395
1139.8	0.0000307
1137.9	0.0000199
1135.9	0.0000080
1134.0	0.0000023
1132.1	0.0000059
1130.1	0.0000096
1128.2	0.0000096
1126.3	0.0000034
1124.4	-0.0000142
1122.4	-0.0000348
1120.5	-0.0000464
1118.6	-0.0000522
1116.6	-0.0000579
1114.7	-0.0000628
1112.8	-0.0000650
1110.9	-0.0000692
1108.9	-0.0000863
1107.0	-0.0001089
1105.1	-0.0001182
1103.1	-0.0001147
1101.2	-0.0001119
1099.3	-0.0001123
1097.4	-0.0001017
1095.4	-0.0000778
1093.5	-0.0000691
1091.6	-0.0000900
1089.6	-0.0001089
1087.7	-0.0001053
1085.8	-0.0001027
1083.9	-0.0001138
1081.9	-0.0001139
1080.0	-0.0000909
1078.1	-0.0000678
1076.1	-0.0000586
1074.2	-0.0000445
1072.3	-0.0000263
1070.4	-0.0000282
1068.4	-0.0000471
1066.5	-0.0000647
1064.6	-0.0000756
1062.6	-0.0000791
1060.7	-0.0000759
1058.8	-0.0000745
1056.9	-0.0000898
1054.9	-0.0001280
1053.0	-0.0001692
1051.1	-0.0001782
1049.1	-0.0001624
1047.2	-0.0001632
1045.3	-0.0001830
1043.4	-0.0001938
1041.4	-0.0001938
1039.5	-0.0002010
1037.6	-0.0002128
1035.6	-0.0002190
1033.7	-0.0002190
1031.8	-0.0002138
1029.9	-0.0002099
1027.9	-0.0002111
1026.0	-0.0002155
1024.1	-0.0002191
1022.1	-0.0002133
1020.2	-0.0002019
1018.3	-0.0002002
1016.4	-0.0002076
1014.4	-0.0002040
1012.5	-0.0001811
1010.6	-0.0001459
1008.6	-0.0000978
1006.7	-0.0000383
1004.8	0.0000143
1002.9	0.0000474
1000.9	0.0000707
999.0	0.0001009
997.1	0.0001400
995.1	0.0001735
993.2	0.0001972
991.3	0.0002251
989.4	0.0002604
987.4	0.0002823
985.5	0.0002885
983.6	0.0003084
981.6	0.0003421
979.7	0.0003544
977.8	0.0003413
975.9	0.0003372
973.9	0.0003575
972.0	0.0003710
970.1	0.0003567
968.1	0.0003329
966.2	0.0003194
964.3	0.0003187
962.4	0.0003200
960.4	0.0003201
958.5	0.0003213
956.6	0.0003070
954.6	0.0002746
952.7	0.0002612
950.8	0.0002748
948.9	0.0002968
946.9	0.0003331
945.0	0.0003653
943.1	0.0003681
941.1	0.0003563
939.2	0.0003412
937.3	0.0003273
935.4	0.0003193
933.4	0.0003041
931.5	0.0002835
929.6	0.0002752
927.6	0.0002727
925.7	0.0002655
923.8	0.0002546
921.9	0.0002288
919.9	0.0001894
918.0	0.0001653
916.1	0.0001634
914.1	0.0001648
912.2	0.0001592
910.3	0.0001508
908.4	0.0001522
906.4	0.0001461
904.5	0.0001019
902.6	0.0000440
900.6	0.0000151
898.7	0.0000113
896.8	-0.0000044
894.9	-0.0000274
892.9	-0.0000269
891.0	-0.0000187
889.1	0.0000207
887.1	0.0001335
885.2	0.0001961
883.3	-0.0000671
881.4	-0.0005966
879.4	-0.0007328
877.5	-0.0003155
875.6	-0.0000122
873.6	0.0001677
871.7	0.0005292
869.8	0.0005365
867.9	0.0000736
865.9	-0.0001285
864.0	0.0000635
862.1	0.0001779
860.1	0.0000543
858.2	-0.0000697
856.3	0.0000172
854.4	0.0001865
852.4	0.0002097
850.5	0.0001127
848.6	0.0000591
