3997.91406	-0.00070
3995.98550	-0.00070
3994.05693	-0.00070
3992.12837	-0.00071
3990.19980	-0.00072
3988.27124	-0.00071
3986.34268	-0.00069
3984.41411	-0.00068
3982.48555	-0.00069
3980.55698	-0.00069
3978.62842	-0.00069
3976.69985	-0.00069
3974.77129	-0.00069
3972.84272	-0.00068
3970.91416	-0.00067
3968.98560	-0.00066
3967.05703	-0.00068
3965.12847	-0.00070
3963.19990	-0.00071
3961.27134	-0.00071
3959.34277	-0.00071
3957.41421	-0.00070
3955.48564	-0.00069
3953.55708	-0.00071
3951.62852	-0.00072
3949.69995	-0.00070
3947.77139	-0.00069
3945.84282	-0.00069
3943.91426	-0.00068
3941.98569	-0.00068
3940.05713	-0.00069
3938.12856	-0.00070
3936.20000	-0.00071
3934.27144	-0.00070
3932.34287	-0.00070
3930.41431	-0.00069
3928.48574	-0.00068
3926.55718	-0.00067
3924.62861	-0.00067
3922.70005	-0.00067
3920.77148	-0.00069
3918.84292	-0.00069
3916.91436	-0.00069
3914.98579	-0.00069
3913.05723	-0.00070
3911.12866	-0.00071
3909.20010	-0.00071
3907.27153	-0.00072
3905.34297	-0.00072
3903.41440	-0.00072
3901.48584	-0.00072
3899.55728	-0.00072
3897.62871	-0.00071
3895.70015	-0.00071
3893.77158	-0.00071
3891.84302	-0.00072
3889.91445	-0.00071
3887.98589	-0.00071
3886.05733	-0.00069
3884.12876	-0.00069
3882.20020	-0.00069
3880.27163	-0.00069
3878.34307	-0.00070
3876.41450	-0.00070
3874.48594	-0.00070
3872.55737	-0.00070
3870.62881	-0.00070
3868.70025	-0.00071
3866.77168	-0.00070
3864.84312	-0.00069
3862.91455	-0.00069
3860.98599	-0.00070
3859.05742	-0.00070
3857.12886	-0.00071
3855.20029	-0.00073
3853.27173	-0.00072
3851.34317	-0.00070
3849.41460	-0.00068
3847.48604	-0.00069
3845.55747	-0.00070
3843.62891	-0.00071
3841.70034	-0.00071
3839.77178	-0.00071
3837.84321	-0.00072
3835.91465	-0.00072
3833.98609	-0.00072
3832.05752	-0.00071
3830.12896	-0.00070
3828.20039	-0.00069
3826.27183	-0.00070
3824.34326	-0.00071
3822.41470	-0.00070
3820.48613	-0.00069
3818.55757	-0.00068
3816.62901	-0.00068
3814.70044	-0.00069
3812.77188	-0.00069
3810.84331	-0.00070
3808.91475	-0.00070
3806.98618	-0.00070
3805.05762	-0.00069
3803.12905	-0.00070
3801.20049	-0.00071
3799.27193	-0.00072
3797.34336	-0.00071
3795.41480	-0.00070
3793.48623	-0.00069
3791.55767	-0.00068
3789.62910	-0.00068
3787.70054	-0.00068
3785.77197	-0.00068
3783.84341	-0.00067
3781.91485	-0.00067
3779.98628	-0.00068
3778.05772	-0.00068
3776.12915	-0.00068
3774.20059	-0.00068
3772.27202	-0.00069
3770.34346	-0.00069
3768.41489	-0.00069
3766.48633	-0.00069
3764.55777	-0.00069
3762.62920	-0.00070
3760.70064	-0.00070
3758.77207	-0.00069
3756.84351	-0.00069
3754.91494	-0.00070
3752.98638	-0.00072
3751.05781	-0.00073
3749.12925	-0.00072
3747.20069	-0.00071
3745.27212	-0.00070
3743.34356	-0.00070
3741.41499	-0.00069
3739.48643	-0.00069
3737.55786	-0.00070
3735.62930	-0.00070
3733.70074	-0.00070
3731.77217	-0.00069
3729.84361	-0.00068
3727.91504	-0.00068
3725.98648	-0.00069
3724.05791	-0.00070
3722.12935	-0.00069
3720.20078	-0.00069
3718.27222	-0.00068
3716.34366	-0.00068
3714.41509	-0.00068
3712.48653	-0.00069
3710.55796	-0.00069
3708.62940	-0.00069
3706.70083	-0.00069
3704.77227	-0.00068
3702.84370	-0.00068
3700.91514	-0.00068
3698.98658	-0.00068
3697.05801	-0.00068
3695.12945	-0.00067
3693.20088	-0.00066
3691.27232	-0.00067
3689.34375	-0.00067
3687.41519	-0.00067
3685.48662	-0.00066
3683.55806	-0.00067
3681.62950	-0.00067
3679.70093	-0.00067
3677.77237	-0.00068
3675.84380	-0.00068
3673.91524	-0.00068
3671.98667	-0.00069
3670.05811	-0.00070
3668.12954	-0.00069
3666.20098	-0.00069
3664.27242	-0.00068
3662.34385	-0.00067
3660.41529	-0.00066
3658.48672	-0.00067
3656.55816	-0.00069
3654.62959	-0.00069
3652.70103	-0.00070
3650.77246	-0.00070
3648.84390	-0.00070
3646.91534	-0.00069
3644.98677	-0.00068
3643.05821	-0.00068
3641.12964	-0.00067
3639.20108	-0.00067
3637.27251	-0.00067
3635.34395	-0.00068
3633.41538	-0.00069
3631.48682	-0.00070
3629.55826	-0.00070
3627.62969	-0.00068
3625.70113	-0.00066
3623.77256	-0.00067
3621.84400	-0.00070
3619.91543	-0.00072
3617.98687	-0.00071
3616.05830	-0.00070
3614.12974	-0.00068
3612.20118	-0.00069
3610.27261	-0.00070
3608.34405	-0.00070
3606.41548	-0.00068
3604.48692	-0.00066
3602.55835	-0.00066
3600.62979	-0.00066
3598.70123	-0.00066
3596.77266	-0.00065
3594.84410	-0.00066
3592.91553	-0.00066
3590.98697	-0.00066
3589.05840	-0.00065
3587.12984	-0.00066
3585.20127	-0.00067
3583.27271	-0.00068
3581.34415	-0.00068
3579.41558	-0.00067
3577.48702	-0.00065
3575.55845	-0.00066
3573.62989	-0.00068
3571.70132	-0.00070
3569.77276	-0.00071
3567.84419	-0.00070
3565.91563	-0.00068
3563.98707	-0.00067
3562.05850	-0.00066
3560.12994	-0.00066
3558.20137	-0.00066
3556.27281	-0.00065
3554.34424	-0.00066
3552.41568	-0.00066
3550.48711	-0.00066
3548.55855	-0.00067
3546.62999	-0.00067
3544.70142	-0.00067
3542.77286	-0.00067
3540.84429	-0.00066
3538.91573	-0.00066
3536.98716	-0.00066
3535.05860	-0.00066
3533.13003	-0.00067
3531.20147	-0.00066
3529.27291	-0.00066
3527.34434	-0.00066
3525.41578	-0.00066
3523.48721	-0.00067
3521.55865	-0.00067
3519.63008	-0.00066
3517.70152	-0.00066
3515.77295	-0.00067
3513.84439	-0.00068
3511.91583	-0.00068
3509.98726	-0.00068
3508.05870	-0.00067
3506.13013	-0.00066
3504.20157	-0.00066
3502.27300	-0.00067
3500.34444	-0.00068
3498.41587	-0.00068
3496.48731	-0.00066
3494.55875	-0.00064
3492.63018	-0.00064
3490.70162	-0.00064
3488.77305	-0.00064
3486.84449	-0.00065
3484.91592	-0.00066
3482.98736	-0.00067
3481.05879	-0.00067
3479.13023	-0.00067
3477.20167	-0.00067
3475.27310	-0.00066
3473.34454	-0.00065
3471.41597	-0.00064
3469.48741	-0.00064
3467.55884	-0.00065
3465.63028	-0.00065
3463.70171	-0.00065
3461.77315	-0.00066
3459.84459	-0.00067
3457.91602	-0.00067
3455.98746	-0.00066
3454.05889	-0.00064
3452.13033	-0.00062
3450.20176	-0.00061
3448.27320	-0.00061
3446.34464	-0.00062
3444.41607	-0.00063
3442.48751	-0.00064
3440.55894	-0.00064
3438.63038	-0.00063
3436.70181	-0.00063
3434.77325	-0.00064
3432.84468	-0.00065
3430.91612	-0.00066
3428.98756	-0.00067
3427.05899	-0.00067
3425.13043	-0.00066
3423.20186	-0.00064
3421.27330	-0.00065
3419.34473	-0.00066
3417.41617	-0.00066
3415.48760	-0.00065
3413.55904	-0.00064
3411.63048	-0.00063
3409.70191	-0.00063
3407.77335	-0.00063
3405.84478	-0.00064
3403.91622	-0.00065
3401.98765	-0.00065
3400.05909	-0.00063
3398.13052	-0.00062
3396.20196	-0.00061
3394.27340	-0.00062
3392.34483	-0.00063
3390.41627	-0.00064
3388.48770	-0.00064
3386.55914	-0.00065
3384.63057	-0.00064
3382.70201	-0.00065
3380.77344	-0.00065
3378.84488	-0.00065
3376.91632	-0.00065
3374.98775	-0.00066
3373.05919	-0.00066
3371.13062	-0.00065
3369.20206	-0.00065
3367.27349	-0.00065
3365.34493	-0.00065
3363.41636	-0.00065
3361.48780	-0.00065
3359.55924	-0.00066
3357.63067	-0.00065
3355.70211	-0.00065
3353.77354	-0.00064
3351.84498	-0.00064
3349.91641	-0.00065
3347.98785	-0.00065
3346.05928	-0.00065
3344.13072	-0.00064
3342.20216	-0.00064
3340.27359	-0.00063
3338.34503	-0.00063
3336.41646	-0.00064
3334.48790	-0.00065
3332.55933	-0.00065
3330.63077	-0.00064
3328.70220	-0.00063
3326.77364	-0.00062
3324.84508	-0.00062
3322.91651	-0.00062
3320.98795	-0.00062
3319.05938	-0.00062
3317.13082	-0.00062
3315.20225	-0.00063
3313.27369	-0.00064
3311.34513	-0.00064
3309.41656	-0.00063
3307.48800	-0.00062
3305.55943	-0.00062
3303.63087	-0.00063
3301.70230	-0.00063
3299.77374	-0.00062
3297.84517	-0.00062
3295.91661	-0.00062
3293.98805	-0.00063
3292.05948	-0.00064
3290.13092	-0.00064
3288.20235	-0.00063
3286.27379	-0.00063
3284.34522	-0.00063
3282.41666	-0.00064
3280.48809	-0.00064
3278.55953	-0.00065
3276.63097	-0.00066
3274.70240	-0.00065
3272.77384	-0.00065
3270.84527	-0.00063
3268.91671	-0.00062
3266.98814	-0.00062
3265.05958	-0.00062
3263.13101	-0.00063
3261.20245	-0.00062
3259.27389	-0.00062
3257.34532	-0.00062
3255.41676	-0.00063
3253.48819	-0.00063
3251.55963	-0.00063
3249.63106	-0.00063
3247.70250	-0.00063
3245.77393	-0.00063
3243.84537	-0.00063
3241.91681	-0.00063
3239.98824	-0.00064
3238.05968	-0.00063
3236.13111	-0.00063
3234.20255	-0.00063
3232.27398	-0.00063
3230.34542	-0.00064
3228.41685	-0.00064
3226.48829	-0.00063
3224.55973	-0.00064
3222.63116	-0.00064
3220.70260	-0.00064
3218.77403	-0.00063
3216.84547	-0.00062
3214.91690	-0.00062
3212.98834	-0.00062
3211.05977	-0.00062
3209.13121	-0.00061
3207.20265	-0.00062
3205.27408	-0.00062
3203.34552	-0.00062
3201.41695	-0.00062
3199.48839	-0.00063
3197.55982	-0.00064
3195.63126	-0.00064
3193.70269	-0.00063
3191.77413	-0.00063
3189.84557	-0.00062
3187.91700	-0.00063
3185.98844	-0.00062
3184.05987	-0.00062
3182.13131	-0.00064
3180.20274	-0.00066
3178.27418	-0.00065
3176.34562	-0.00063
3174.41705	-0.00060
3172.48849	-0.00060
3170.55992	-0.00061
3168.63136	-0.00063
3166.70279	-0.00063
3164.77423	-0.00061
3162.84566	-0.00061
3160.91710	-0.00062
3158.98854	-0.00063
3157.05997	-0.00063
3155.13141	-0.00062
3153.20284	-0.00061
3151.27428	-0.00061
3149.34571	-0.00062
3147.41715	-0.00062
3145.48858	-0.00062
3143.56002	-0.00063
3141.63146	-0.00063
3139.70289	-0.00063
3137.77433	-0.00062
3135.84576	-0.00062
3133.91720	-0.00062
3131.98863	-0.00062
3130.06007	-0.00063
3128.13150	-0.00063
3126.20294	-0.00062
3124.27438	-0.00062
3122.34581	-0.00063
3120.41725	-0.00063
3118.48868	-0.00063
3116.56012	-0.00063
3114.63155	-0.00062
3112.70299	-0.00061
3110.77442	-0.00062
3108.84586	-0.00062
3106.91730	-0.00061
3104.98873	-0.00061
3103.06017	-0.00061
3101.13160	-0.00061
3099.20304	-0.00061
3097.27447	-0.00061
3095.34591	-0.00061
3093.41734	-0.00061
3091.48878	-0.00061
3089.56022	-0.00061
3087.63165	-0.00060
3085.70309	-0.00060
3083.77452	-0.00061
3081.84596	-0.00061
3079.91739	-0.00062
3077.98883	-0.00062
3076.06026	-0.00062
3074.13170	-0.00061
3072.20314	-0.00060
3070.27457	-0.00060
3068.34601	-0.00061
3066.41744	-0.00062
3064.48888	-0.00062
3062.56031	-0.00062
3060.63175	-0.00062
3058.70318	-0.00063
3056.77462	-0.00062
3054.84606	-0.00061
3052.91749	-0.00061
3050.98893	-0.00062
3049.06036	-0.00062
3047.13180	-0.00061
3045.20323	-0.00061
3043.27467	-0.00061
3041.34610	-0.00061
3039.41754	-0.00061
3037.48898	-0.00061
3035.56041	-0.00061
3033.63185	-0.00060
3031.70328	-0.00060
3029.77472	-0.00060
3027.84615	-0.00060
3025.91759	-0.00060
3023.98903	-0.00060
3022.06046	-0.00062
3020.13190	-0.00062
3018.20333	-0.00063
3016.27477	-0.00062
3014.34620	-0.00061
3012.41764	-0.00060
3010.48907	-0.00060
3008.56051	-0.00060
3006.63195	-0.00060
3004.70338	-0.00060
3002.77482	-0.00060
3000.84625	-0.00059
2998.91769	-0.00059
2996.98912	-0.00059
2995.06056	-0.00060
2993.13199	-0.00061
2991.20343	-0.00060
2989.27487	-0.00059
2987.34630	-0.00060
2985.41774	-0.00061
2983.48917	-0.00062
2981.56061	-0.00062
2979.63204	-0.00062
2977.70348	-0.00062
2975.77491	-0.00061
2973.84635	-0.00061
2971.91779	-0.00060
2969.98922	-0.00060
2968.06066	-0.00060
2966.13209	-0.00060
2964.20353	-0.00060
2962.27496	-0.00060
2960.34640	-0.00060
2958.41783	-0.00061
2956.48927	-0.00061
2954.56071	-0.00060
2952.63214	-0.00060
2950.70358	-0.00059
2948.77501	-0.00059
2946.84645	-0.00060
2944.91788	-0.00061
2942.98932	-0.00061
2941.06075	-0.00060
2939.13219	-0.00059
2937.20363	-0.00059
2935.27506	-0.00059
2933.34650	-0.00060
2931.41793	-0.00060
2929.48937	-0.00060
2927.56080	-0.00060
2925.63224	-0.00060
2923.70367	-0.00061
2921.77511	-0.00060
2919.84655	-0.00060
2917.91798	-0.00060
2915.98942	-0.00060
2914.06085	-0.00060
2912.13229	-0.00059
2910.20372	-0.00059
2908.27516	-0.00060
2906.34659	-0.00060
2904.41803	-0.00060
2902.48947	-0.00060
2900.56090	-0.00061
2898.63234	-0.00060
2896.70377	-0.00060
2894.77521	-0.00060
2892.84664	-0.00059
2890.91808	-0.00059
2888.98952	-0.00060
2887.06095	-0.00061
2885.13239	-0.00061
2883.20382	-0.00061
2881.27526	-0.00060
2879.34669	-0.00059
2877.41813	-0.00058
2875.48956	-0.00058
2873.56100	-0.00059
2871.63244	-0.00059
2869.70387	-0.00059
2867.77531	-0.00059
2865.84674	-0.00058
2863.91818	-0.00059
2861.98961	-0.00059
2860.06105	-0.00059
2858.13248	-0.00060
2856.20392	-0.00060
2854.27536	-0.00060
2852.34679	-0.00060
2850.41823	-0.00060
2848.48966	-0.00060
2846.56110	-0.00060
2844.63253	-0.00060
2842.70397	-0.00061
2840.77540	-0.00061
2838.84684	-0.00061
2836.91828	-0.00062
2834.98971	-0.00062
2833.06115	-0.00062
2831.13258	-0.00060
2829.20402	-0.00060
2827.27545	-0.00059
2825.34689	-0.00059
2823.41832	-0.00059
2821.48976	-0.00060
2819.56120	-0.00060
2817.63263	-0.00060
2815.70407	-0.00060
2813.77550	-0.00060
2811.84694	-0.00060
2809.91837	-0.00060
2807.98981	-0.00059
2806.06124	-0.00058
2804.13268	-0.00059
2802.20412	-0.00060
2800.27555	-0.00061
2798.34699	-0.00061
2796.41842	-0.00060
2794.48986	-0.00059
2792.56129	-0.00059
2790.63273	-0.00060
2788.70416	-0.00061
2786.77560	-0.00060
2784.84704	-0.00059
2782.91847	-0.00059
2780.98991	-0.00059
2779.06134	-0.00060
2777.13278	-0.00060
2775.20421	-0.00060
2773.27565	-0.00060
2771.34708	-0.00060
2769.41852	-0.00059
2767.48996	-0.00059
2765.56139	-0.00059
2763.63283	-0.00060
2761.70426	-0.00060
2759.77570	-0.00061
2757.84713	-0.00061
2755.91857	-0.00060
2753.99001	-0.00059
2752.06144	-0.00059
2750.13288	-0.00059
2748.20431	-0.00060
2746.27575	-0.00061
2744.34718	-0.00061
2742.41862	-0.00060
2740.49005	-0.00061
2738.56149	-0.00062
2736.63293	-0.00062
2734.70436	-0.00061
2732.77580	-0.00060
2730.84723	-0.00060
2728.91867	-0.00060
2726.99010	-0.00059
2725.06154	-0.00059
2723.13297	-0.00059
2721.20441	-0.00059
2719.27585	-0.00059
2717.34728	-0.00059
2715.41872	-0.00058
2713.49015	-0.00059
2711.56159	-0.00060
2709.63302	-0.00060
2707.70446	-0.00060
2705.77589	-0.00061
2703.84733	-0.00060
2701.91877	-0.00059
2699.99020	-0.00059
2698.06164	-0.00060
2696.13307	-0.00060
2694.20451	-0.00060
2692.27594	-0.00061
2690.34738	-0.00061
2688.41881	-0.00061
2686.49025	-0.00060
2684.56169	-0.00060
2682.63312	-0.00060
2680.70456	-0.00060
2678.77599	-0.00061
2676.84743	-0.00061
2674.91886	-0.00061
2672.99030	-0.00060
2671.06173	-0.00060
2669.13317	-0.00060
2667.20461	-0.00061
2665.27604	-0.00061
2663.34748	-0.00061
2661.41891	-0.00060
2659.49035	-0.00060
2657.56178	-0.00059
2655.63322	-0.00060
2653.70465	-0.00060
2651.77609	-0.00060
2649.84753	-0.00060
2647.91896	-0.00060
2645.99040	-0.00060
2644.06183	-0.00060
2642.13327	-0.00060
2640.20470	-0.00060
2638.27614	-0.00060
2636.34757	-0.00060
2634.41901	-0.00059
2632.49045	-0.00060
2630.56188	-0.00060
2628.63332	-0.00060
2626.70475	-0.00060
2624.77619	-0.00060
2622.84762	-0.00061
2620.91906	-0.00061
2618.99049	-0.00060
2617.06193	-0.00060
2615.13337	-0.00060
2613.20480	-0.00061
2611.27624	-0.00061
2609.34767	-0.00061
2607.41911	-0.00061
2605.49054	-0.00060
2603.56198	-0.00060
2601.63342	-0.00060
2599.70485	-0.00060
2597.77629	-0.00060
2595.84772	-0.00059
2593.91916	-0.00059
2591.99059	-0.00060
2590.06203	-0.00060
2588.13346	-0.00061
2586.20490	-0.00060
2584.27634	-0.00060
2582.34777	-0.00059
2580.41921	-0.00060
2578.49064	-0.00061
2576.56208	-0.00062
2574.63351	-0.00063
2572.70495	-0.00061
2570.77638	-0.00060
2568.84782	-0.00060
2566.91926	-0.00060
2564.99069	-0.00059
2563.06213	-0.00058
2561.13356	-0.00058
2559.20500	-0.00058
2557.27643	-0.00059
2555.34787	-0.00060
2553.41930	-0.00060
2551.49074	-0.00060
2549.56218	-0.00060
2547.63361	-0.00060
2545.70505	-0.00060
2543.77648	-0.00059
2541.84792	-0.00060
2539.91935	-0.00060
2537.99079	-0.00060
2536.06222	-0.00060
2534.13366	-0.00060
2532.20510	-0.00060
2530.27653	-0.00060
2528.34797	-0.00060
2526.41940	-0.00060
2524.49084	-0.00060
2522.56227	-0.00060
2520.63371	-0.00060
2518.70514	-0.00061
2516.77658	-0.00062
2514.84802	-0.00062
2512.91945	-0.00061
2510.99089	-0.00061
2509.06232	-0.00061
2507.13376	-0.00062
2505.20519	-0.00062
2503.27663	-0.00062
2501.34806	-0.00062
2499.41950	-0.00061
2497.49094	-0.00060
2495.56237	-0.00060
2493.63381	-0.00059
2491.70524	-0.00059
2489.77668	-0.00059
2487.84811	-0.00059
2485.91955	-0.00060
2483.99098	-0.00060
2482.06242	-0.00061
2480.13386	-0.00061
2478.20529	-0.00061
2476.27673	-0.00061
2474.34816	-0.00061
2472.41960	-0.00060
2470.49103	-0.00060
2468.56247	-0.00060
2466.63391	-0.00061
2464.70534	-0.00061
2462.77678	-0.00061
2460.84821	-0.00060
2458.91965	-0.00060
2456.99108	-0.00060
2455.06252	-0.00061
2453.13395	-0.00062
2451.20539	-0.00062
2449.27683	-0.00062
2447.34826	-0.00061
2445.41970	-0.00061
2443.49113	-0.00061
2441.56257	-0.00061
2439.63400	-0.00061
2437.70544	-0.00061
2435.77687	-0.00062
2433.84831	-0.00063
2431.91975	-0.00062
2429.99118	-0.00061
2428.06262	-0.00061
2426.13405	-0.00061
2424.20549	-0.00062
2422.27692	-0.00062
2420.34836	-0.00062
2418.41979	-0.00061
2416.49123	-0.00061
2414.56267	-0.00062
2412.63410	-0.00062
2410.70554	-0.00062
2408.77697	-0.00062
2406.84841	-0.00063
2404.91984	-0.00063
2402.99128	-0.00062
2401.06271	-0.00061
2399.13415	-0.00060
2397.20559	-0.00060
2395.27702	-0.00060
2393.34846	-0.00061
2391.41989	-0.00061
2389.49133	-0.00061
2387.56276	-0.00060
2385.63420	-0.00060
2383.70563	-0.00061
2381.77707	-0.00062
2379.84851	-0.00062
2377.91994	-0.00061
2375.99138	-0.00062
2374.06281	-0.00062
2372.13425	-0.00062
2370.20568	-0.00062
2368.27712	-0.00062
2366.34855	-0.00063
2364.41999	-0.00064
2362.49143	-0.00064
2360.56286	-0.00063
2358.63430	-0.00063
2356.70573	-0.00062
2354.77717	-0.00062
2352.84860	-0.00062
2350.92004	-0.00063
2348.99147	-0.00062
2347.06291	-0.00062
2345.13435	-0.00062
2343.20578	-0.00062
2341.27722	-0.00062
2339.34865	-0.00063
2337.42009	-0.00062
2335.49152	-0.00062
2333.56296	-0.00062
2331.63440	-0.00063
2329.70583	-0.00064
2327.77727	-0.00063
2325.84870	-0.00063
2323.92014	-0.00063
2321.99157	-0.00062
2320.06301	-0.00062
2318.13444	-0.00062
2316.20588	-0.00062
2314.27732	-0.00063
2312.34875	-0.00063
2310.42019	-0.00064
2308.49162	-0.00064
2306.56306	-0.00064
2304.63449	-0.00063
2302.70593	-0.00062
2300.77736	-0.00062
2298.84880	-0.00062
2296.92024	-0.00062
2294.99167	-0.00062
2293.06311	-0.00062
2291.13454	-0.00062
2289.20598	-0.00063
2287.27741	-0.00062
2285.34885	-0.00062
2283.42028	-0.00063
2281.49172	-0.00063
2279.56316	-0.00063
2277.63459	-0.00063
2275.70603	-0.00062
2273.77746	-0.00062
2271.84890	-0.00062
2269.92033	-0.00062
2267.99177	-0.00063
2266.06320	-0.00063
2264.13464	-0.00063
2262.20608	-0.00063
2260.27751	-0.00063
2258.34895	-0.00063
2256.42038	-0.00063
2254.49182	-0.00063
2252.56325	-0.00063
2250.63469	-0.00063
2248.70612	-0.00063
2246.77756	-0.00062
2244.84900	-0.00063
2242.92043	-0.00063
2240.99187	-0.00063
2239.06330	-0.00063
2237.13474	-0.00063
2235.20617	-0.00064
2233.27761	-0.00064
2231.34904	-0.00064
2229.42048	-0.00064
2227.49192	-0.00063
2225.56335	-0.00064
2223.63479	-0.00064
2221.70622	-0.00065
2219.77766	-0.00064
2217.84909	-0.00064
2215.92053	-0.00064
2213.99196	-0.00064
2212.06340	-0.00064
2210.13484	-0.00063
2208.20627	-0.00063
2206.27771	-0.00063
2204.34914	-0.00063
2202.42058	-0.00063
2200.49201	-0.00064
2198.56345	-0.00064
2196.63488	-0.00064
2194.70632	-0.00064
2192.77776	-0.00063
2190.84919	-0.00063
2188.92063	-0.00062
2186.99206	-0.00062
2185.06350	-0.00062
2183.13493	-0.00062
2181.20637	-0.00063
2179.27781	-0.00063
2177.34924	-0.00063
2175.42068	-0.00063
2173.49211	-0.00063
2171.56355	-0.00063
2169.63498	-0.00063
2167.70642	-0.00063
2165.77785	-0.00063
2163.84929	-0.00063
2161.92073	-0.00063
2159.99216	-0.00063
2158.06360	-0.00063
2156.13503	-0.00063
2154.20647	-0.00062
2152.27790	-0.00062
2150.34934	-0.00063
2148.42077	-0.00063
2146.49221	-0.00063
2144.56365	-0.00063
2142.63508	-0.00063
2140.70652	-0.00064
2138.77795	-0.00064
2136.84939	-0.00063
2134.92082	-0.00062
2132.99226	-0.00062
2131.06369	-0.00063
2129.13513	-0.00065
2127.20657	-0.00065
2125.27800	-0.00065
2123.34944	-0.00064
2121.42087	-0.00065
2119.49231	-0.00065
2117.56374	-0.00065
2115.63518	-0.00065
2113.70661	-0.00065
2111.77805	-0.00065
2109.84949	-0.00064
2107.92092	-0.00064
2105.99236	-0.00064
2104.06379	-0.00065
2102.13523	-0.00064
2100.20666	-0.00064
2098.27810	-0.00064
2096.34953	-0.00064
2094.42097	-0.00063
2092.49241	-0.00063
2090.56384	-0.00063
2088.63528	-0.00063
2086.70671	-0.00064
2084.77815	-0.00064
2082.84958	-0.00063
2080.92102	-0.00063
2078.99245	-0.00063
2077.06389	-0.00063
2075.13533	-0.00062
2073.20676	-0.00062
2071.27820	-0.00062
2069.34963	-0.00062
2067.42107	-0.00063
2065.49250	-0.00063
2063.56394	-0.00063
2061.63537	-0.00064
2059.70681	-0.00065
2057.77825	-0.00065
2055.84968	-0.00065
2053.92112	-0.00064
2051.99255	-0.00064
2050.06399	-0.00064
2048.13542	-0.00064
2046.20686	-0.00064
2044.27830	-0.00064
2042.34973	-0.00065
2040.42117	-0.00066
2038.49260	-0.00066
2036.56404	-0.00066
2034.63547	-0.00065
2032.70691	-0.00065
2030.77834	-0.00065
2028.84978	-0.00065
2026.92122	-0.00064
2024.99265	-0.00063
2023.06409	-0.00063
2021.13552	-0.00064
2019.20696	-0.00065
2017.27839	-0.00065
2015.34983	-0.00066
2013.42126	-0.00066
2011.49270	-0.00067
2009.56414	-0.00067
2007.63557	-0.00066
2005.70701	-0.00065
2003.77844	-0.00065
2001.84988	-0.00065
1999.92131	-0.00063
1997.99275	-0.00064
1996.06418	-0.00065
1994.13562	-0.00062
1992.20706	-0.00061
1990.27849	-0.00069
1988.34993	-0.00075
1986.42136	-0.00070
1984.49280	-0.00063
1982.56423	-0.00060
1980.63567	-0.00060
1978.70710	-0.00061
1976.77854	-0.00062
1974.84998	-0.00064
1972.92141	-0.00066
1970.99285	-0.00067
1969.06428	-0.00066
1967.13572	-0.00065
1965.20715	-0.00066
1963.27859	-0.00067
1961.35002	-0.00067
1959.42146	-0.00066
1957.49290	-0.00065
1955.56433	-0.00065
1953.63577	-0.00065
1951.70720	-0.00065
1949.77864	-0.00064
1947.85007	-0.00063
1945.92151	-0.00063
1943.99294	-0.00063
1942.06438	-0.00064
1940.13582	-0.00065
1938.20725	-0.00066
1936.27869	-0.00067
1934.35012	-0.00066
1932.42156	-0.00066
1930.49299	-0.00066
1928.56443	-0.00066
1926.63586	-0.00066
1924.70730	-0.00066
1922.77874	-0.00066
1920.85017	-0.00066
1918.92161	-0.00066
1916.99304	-0.00066
1915.06448	-0.00065
1913.13591	-0.00064
1911.20735	-0.00064
1909.27878	-0.00065
1907.35022	-0.00066
1905.42166	-0.00066
1903.49309	-0.00065
1901.56453	-0.00066
1899.63596	-0.00067
1897.70740	-0.00068
1895.77883	-0.00068
1893.85027	-0.00069
1891.92171	-0.00069
1889.99314	-0.00068
1888.06458	-0.00067
1886.13601	-0.00067
1884.20745	-0.00067
1882.27888	-0.00067
1880.35032	-0.00068
1878.42175	-0.00068
1876.49319	-0.00068
1874.56463	-0.00067
1872.63606	-0.00066
1870.70750	-0.00067
1868.77893	-0.00067
1866.85037	-0.00068
1864.92180	-0.00067
1862.99324	-0.00066
1861.06467	-0.00066
1859.13611	-0.00067
1857.20755	-0.00067
1855.27898	-0.00067
1853.35042	-0.00067
1851.42185	-0.00067
1849.49329	-0.00066
1847.56472	-0.00066
1845.63616	-0.00066
1843.70759	-0.00067
1841.77903	-0.00068
1839.85047	-0.00068
1837.92190	-0.00067
1835.99334	-0.00066
1834.06477	-0.00066
1832.13621	-0.00065
1830.20764	-0.00066
1828.27908	-0.00066
1826.35051	-0.00067
1824.42195	-0.00067
1822.49339	-0.00067
1820.56482	-0.00066
1818.63626	-0.00066
1816.70769	-0.00066
1814.77913	-0.00066
1812.85056	-0.00066
1810.92200	-0.00067
1808.99343	-0.00067
1807.06487	-0.00066
1805.13631	-0.00067
1803.20774	-0.00067
1801.27918	-0.00068
1799.35061	-0.00068
1797.42205	-0.00067
1795.49348	-0.00067
1793.56492	-0.00068
1791.63635	-0.00068
1789.70779	-0.00068
1787.77923	-0.00068
1785.85066	-0.00068
1783.92210	-0.00068
1781.99353	-0.00068
1780.06497	-0.00067
1778.13640	-0.00067
1776.20784	-0.00068
1774.27927	-0.00069
1772.35071	-0.00069
1770.42215	-0.00069
1768.49358	-0.00069
1766.56502	-0.00068
1764.63645	-0.00068
1762.70789	-0.00069
1760.77932	-0.00070
1758.85076	-0.00069
1756.92220	-0.00069
1754.99363	-0.00069
1753.06507	-0.00068
1751.13650	-0.00068
1749.20794	-0.00068
1747.27937	-0.00067
1745.35081	-0.00068
1743.42224	-0.00069
1741.49368	-0.00070
1739.56512	-0.00070
1737.63655	-0.00069
1735.70799	-0.00067
1733.77942	-0.00066
1731.85086	-0.00064
1729.92229	-0.00065
1727.99373	-0.00068
1726.06516	-0.00069
1724.13660	-0.00069
1722.20804	-0.00069
1720.27947	-0.00069
1718.35091	-0.00070
1716.42234	-0.00070
1714.49378	-0.00069
1712.56521	-0.00067
1710.63665	-0.00067
1708.70808	-0.00068
1706.77952	-0.00068
1704.85096	-0.00068
1702.92239	-0.00069
1700.99383	-0.00069
1699.06526	-0.00069
1697.13670	-0.00068
1695.20813	-0.00067
1693.27957	-0.00066
1691.35100	-0.00066
1689.42244	-0.00067
1687.49388	-0.00068
1685.56531	-0.00070
1683.63675	-0.00070
1681.70818	-0.00069
1679.77962	-0.00068
1677.85105	-0.00068
1675.92249	-0.00069
1673.99392	-0.00069
1672.06536	-0.00069
1670.13680	-0.00069
1668.20823	-0.00069
1666.27967	-0.00068
1664.35110	-0.00068
1662.42254	-0.00069
1660.49397	-0.00068
1658.56541	-0.00068
1656.63684	-0.00069
1654.70828	-0.00071
1652.77972	-0.00072
1650.85115	-0.00071
1648.92259	-0.00070
1646.99402	-0.00069
1645.06546	-0.00068
1643.13689	-0.00067
1641.20833	-0.00068
1639.27976	-0.00069
1637.35120	-0.00069
1635.42264	-0.00069
1633.49407	-0.00069
1631.56551	-0.00069
1629.63694	-0.00069
1627.70838	-0.00068
1625.77981	-0.00068
1623.85125	-0.00069
1621.92269	-0.00069
1619.99412	-0.00069
1618.06556	-0.00070
1616.13699	-0.00070
1614.20843	-0.00069
1612.27986	-0.00068
1610.35130	-0.00068
1608.42273	-0.00068
1606.49417	-0.00068
1604.56561	-0.00068
1602.63704	-0.00068
1600.70848	-0.00068
1598.77991	-0.00067
1596.85135	-0.00068
1594.92278	-0.00068
1592.99422	-0.00069
1591.06565	-0.00069
1589.13709	-0.00069
1587.20853	-0.00069
1585.27996	-0.00069
1583.35140	-0.00068
1581.42283	-0.00068
1579.49427	-0.00069
1577.56570	-0.00071
1575.63714	-0.00071
1573.70857	-0.00070
1571.78001	-0.00069
1569.85145	-0.00069
1567.92288	-0.00070
1565.99432	-0.00070
1564.06575	-0.00070
1562.13719	-0.00070
1560.20862	-0.00072
1558.28006	-0.00072
1556.35149	-0.00071
1554.42293	-0.00070
1552.49437	-0.00069
1550.56580	-0.00069
1548.63724	-0.00069
1546.70867	-0.00069
1544.78011	-0.00070
1542.85154	-0.00071
1540.92298	-0.00073
1538.99441	-0.00073
1537.06585	-0.00071
1535.13729	-0.00070
1533.20872	-0.00069
1531.28016	-0.00069
1529.35159	-0.00069
1527.42303	-0.00069
1525.49446	-0.00070
1523.56590	-0.00071
1521.63733	-0.00071
1519.70877	-0.00071
1517.78021	-0.00071
1515.85164	-0.00070
1513.92308	-0.00069
1511.99451	-0.00069
1510.06595	-0.00070
1508.13738	-0.00071
1506.20882	-0.00072
1504.28025	-0.00071
1502.35169	-0.00071
1500.42313	-0.00070
1498.49456	-0.00070
1496.56600	-0.00069
1494.63743	-0.00068
1492.70887	-0.00069
1490.78030	-0.00070
1488.85174	-0.00070
1486.92317	-0.00069
1484.99461	-0.00068
1483.06605	-0.00067
1481.13748	-0.00067
1479.20892	-0.00067
1477.28035	-0.00067
1475.35179	-0.00069
1473.42322	-0.00070
1471.49466	-0.00071
1469.56610	-0.00071
1467.63753	-0.00070
1465.70897	-0.00069
1463.78040	-0.00068
1461.85184	-0.00068
1459.92327	-0.00069
1457.99471	-0.00070
1456.06614	-0.00071
1454.13758	-0.00070
1452.20902	-0.00070
1450.28045	-0.00070
1448.35189	-0.00069
1446.42332	-0.00068
1444.49476	-0.00068
1442.56619	-0.00068
1440.63763	-0.00069
1438.70906	-0.00070
1436.78050	-0.00071
1434.85194	-0.00072
1432.92337	-0.00072
1430.99481	-0.00071
1429.06624	-0.00069
1427.13768	-0.00068
1425.20911	-0.00068
1423.28055	-0.00068
1421.35198	-0.00068
1419.42342	-0.00069
1417.49486	-0.00069
1415.56629	-0.00068
1413.63773	-0.00067
1411.70916	-0.00067
1409.78060	-0.00068
1407.85203	-0.00069
1405.92347	-0.00070
1403.99490	-0.00069
1402.06634	-0.00069
1400.13778	-0.00069
1398.20921	-0.00069
1396.28065	-0.00070
1394.35208	-0.00070
1392.42352	-0.00069
1390.49495	-0.00069
1388.56639	-0.00069
1386.63782	-0.00069
1384.70926	-0.00069
1382.78070	-0.00069
1380.85213	-0.00069
1378.92357	-0.00069
1376.99500	-0.00069
1375.06644	-0.00068
1373.13787	-0.00068
1371.20931	-0.00067
1369.28074	-0.00066
1367.35218	-0.00066
1365.42362	-0.00067
1363.49505	-0.00068
1361.56649	-0.00069
1359.63792	-0.00070
1357.70936	-0.00070
1355.78079	-0.00069
1353.85223	-0.00068
1351.92366	-0.00068
1349.99510	-0.00069
1348.06654	-0.00069
1346.13797	-0.00068
1344.20941	-0.00068
1342.28084	-0.00068
1340.35228	-0.00069
1338.42371	-0.00069
1336.49515	-0.00070
1334.56659	-0.00070
1332.63802	-0.00069
1330.70946	-0.00069
1328.78089	-0.00069
1326.85233	-0.00070
1324.92376	-0.00069
1322.99520	-0.00068
1321.06663	-0.00068
1319.13807	-0.00068
1317.20951	-0.00069
1315.28094	-0.00069
1313.35238	-0.00070
1311.42381	-0.00070
1309.49525	-0.00070
1307.56668	-0.00070
1305.63812	-0.00070
1303.70955	-0.00070
1301.78099	-0.00071
1299.85243	-0.00071
1297.92386	-0.00070
1295.99530	-0.00069
1294.06673	-0.00068
1292.13817	-0.00067
1290.20960	-0.00068
1288.28104	-0.00070
1286.35247	-0.00070
1284.42391	-0.00071
1282.49535	-0.00070
1280.56678	-0.00070
1278.63822	-0.00070
1276.70965	-0.00070
1274.78109	-0.00070
1272.85252	-0.00071
1270.92396	-0.00071
1268.99539	-0.00070
1267.06683	-0.00070
1265.13827	-0.00070
1263.20970	-0.00070
1261.28114	-0.00069
1259.35257	-0.00069
1257.42401	-0.00070
1255.49544	-0.00070
1253.56688	-0.00071
1251.63831	-0.00071
1249.70975	-0.00071
1247.78119	-0.00070
1245.85262	-0.00070
1243.92406	-0.00070
1241.99549	-0.00070
1240.06693	-0.00070
1238.13836	-0.00070
1236.20980	-0.00070
1234.28123	-0.00070
1232.35267	-0.00071
1230.42411	-0.00071
1228.49554	-0.00071
1226.56698	-0.00071
1224.63841	-0.00070
1222.70985	-0.00070
1220.78128	-0.00071
1218.85272	-0.00072
1216.92415	-0.00072
1214.99559	-0.00072
1213.06703	-0.00071
1211.13846	-0.00070
1209.20990	-0.00071
1207.28133	-0.00072
1205.35277	-0.00072
1203.42420	-0.00071
1201.49564	-0.00070
1199.56708	-0.00069
1197.63851	-0.00068
1195.70995	-0.00070
1193.78138	-0.00071
1191.85282	-0.00072
1189.92425	-0.00073
1187.99569	-0.00073
1186.06712	-0.00073
1184.13856	-0.00073
1182.21000	-0.00072
1180.28143	-0.00071
1178.35287	-0.00072
1176.42430	-0.00072
1174.49574	-0.00073
1172.56717	-0.00073
1170.63861	-0.00072
1168.71004	-0.00071
1166.78148	-0.00071
1164.85292	-0.00071
1162.92435	-0.00071
1160.99579	-0.00071
1159.06722	-0.00072
1157.13866	-0.00072
1155.21009	-0.00072
1153.28153	-0.00071
1151.35296	-0.00072
1149.42440	-0.00072
1147.49584	-0.00072
1145.56727	-0.00073
1143.63871	-0.00074
1141.71014	-0.00074
1139.78158	-0.00072
1137.85301	-0.00072
1135.92445	-0.00072
1133.99588	-0.00073
1132.06732	-0.00074
1130.13876	-0.00075
1128.21019	-0.00075
1126.28163	-0.00075
1124.35306	-0.00075
1122.42450	-0.00075
1120.49593	-0.00075
1118.56737	-0.00075
1116.63880	-0.00074
1114.71024	-0.00074
1112.78168	-0.00073
1110.85311	-0.00073
1108.92455	-0.00073
1106.99598	-0.00073
1105.06742	-0.00073
1103.13885	-0.00072
1101.21029	-0.00072
1099.28172	-0.00073
1097.35316	-0.00072
1095.42460	-0.00072
1093.49603	-0.00073
1091.56747	-0.00073
1089.63890	-0.00073
1087.71034	-0.00073
1085.78177	-0.00073
1083.85321	-0.00073
1081.92464	-0.00073
1079.99608	-0.00073
1078.06752	-0.00073
1076.13895	-0.00075
1074.21039	-0.00075
1072.28182	-0.00074
1070.35326	-0.00074
1068.42469	-0.00074
1066.49613	-0.00075
1064.56756	-0.00073
1062.63900	-0.00072
1060.71044	-0.00072
1058.78187	-0.00073
1056.85331	-0.00073
1054.92474	-0.00073
1052.99618	-0.00072
1051.06761	-0.00072
1049.13905	-0.00072
1047.21049	-0.00073
1045.28192	-0.00074
1043.35336	-0.00073
1041.42479	-0.00073
1039.49623	-0.00073
1037.56766	-0.00074
1035.63910	-0.00075
1033.71053	-0.00076
1031.78197	-0.00076
1029.85341	-0.00076
1027.92484	-0.00076
1025.99628	-0.00077
1024.06771	-0.00076
1022.13915	-0.00074
1020.21058	-0.00072
1018.28202	-0.00072
1016.35345	-0.00073
1014.42489	-0.00074
1012.49633	-0.00074
1010.56776	-0.00073
1008.63920	-0.00072
1006.71063	-0.00072
1004.78207	-0.00072
1002.85350	-0.00071
1000.92494	-0.00071
998.99637	-0.00071
997.06781	-0.00071
995.13925	-0.00072
993.21068	-0.00073
991.28212	-0.00073
989.35355	-0.00073
987.42499	-0.00072
985.49642	-0.00071
983.56786	-0.00071
981.63929	-0.00075
979.71073	-0.00078
977.78217	-0.00079
975.85360	-0.00078
973.92504	-0.00076
971.99647	-0.00074
970.06791	-0.00074
968.13934	-0.00075
966.21078	-0.00076
964.28221	-0.00077
962.35365	-0.00076
960.42509	-0.00076
958.49652	-0.00076
956.56796	-0.00076
954.63939	-0.00077
952.71083	-0.00077
950.78226	-0.00075
948.85370	-0.00073
946.92513	-0.00073
944.99657	-0.00073
943.06801	-0.00073
941.13944	-0.00072
939.21088	-0.00073
937.28231	-0.00075
935.35375	-0.00077
933.42518	-0.00077
931.49662	-0.00076
929.56805	-0.00076
927.63949	-0.00077
925.71093	-0.00077
923.78236	-0.00077
921.85380	-0.00077
919.92523	-0.00077
917.99667	-0.00075
916.06810	-0.00074
914.13954	-0.00075
912.21098	-0.00075
910.28241	-0.00075
908.35385	-0.00075
906.42528	-0.00077
904.49672	-0.00078
902.56815	-0.00078
900.63959	-0.00077
898.71102	-0.00078
896.78246	-0.00079
894.85390	-0.00080
892.92533	-0.00080
890.99677	-0.00079
889.06820	-0.00079
887.13964	-0.00078
885.21107	-0.00079
883.28251	-0.00080
881.35394	-0.00079
879.42538	-0.00080
877.49682	-0.00080
875.56825	-0.00078
873.63969	-0.00075
871.71112	-0.00074
869.78256	-0.00075
867.85399	-0.00075
865.92543	-0.00074
863.99686	-0.00074
862.06830	-0.00076
860.13974	-0.00076
858.21117	-0.00076
856.28261	-0.00078
854.35404	-0.00080
852.42548	-0.00080
850.49691	-0.00078
848.56835	-0.00079
846.63978	-0.00082
844.71122	-0.00086
842.78266	-0.00087
840.85409	-0.00082
838.92553	-0.00077
836.99696	-0.00076
835.06840	-0.00077
833.13983	-0.00078
831.21127	-0.00080
829.28270	-0.00080
827.35414	-0.00078
825.42558	-0.00075
823.49701	-0.00073
821.56845	-0.00073
819.63988	-0.00077
817.71132	-0.00078
815.78275	-0.00078
813.85419	-0.00079
811.92562	-0.00078
809.99706	-0.00079
808.06850	-0.00082
806.13993	-0.00084
804.21137	-0.00086
802.28280	-0.00085
800.35424	-0.00080
798.42567	-0.00079
796.49711	-0.00082
794.56854	-0.00084
792.63998	-0.00083
790.71142	-0.00080
788.78285	-0.00075
786.85429	-0.00072
784.92572	-0.00074
782.99716	-0.00079
781.06859	-0.00079
779.14003	-0.00073
777.21147	-0.00070
775.28290	-0.00075
773.35434	-0.00082
771.42577	-0.00083
769.49721	-0.00081
767.56864	-0.00082
765.64008	-0.00082
763.71151	-0.00083
761.78295	-0.00086
759.85439	-0.00090
757.92582	-0.00089
755.99726	-0.00086
754.06869	-0.00084
752.14013	-0.00084
750.21156	-0.00093
748.28300	-0.00107
