3997.9	0.0003209
3996.0	0.0003085
3994.1	0.0003119
3992.1	0.0003188
3990.2	0.0003100
3988.3	0.0002901
3986.3	0.0002702
3984.4	0.0002505
3982.5	0.0002405
3980.6	0.0002497
3978.6	0.0002691
3976.7	0.0002743
3974.8	0.0002582
3972.8	0.0002390
3970.9	0.0002274
3969.0	0.0002177
3967.1	0.0002105
3965.1	0.0002086
3963.2	0.0002080
3961.3	0.0002025
3959.3	0.0001878
3957.4	0.0001704
3955.5	0.0001601
3953.6	0.0001511
3951.6	0.0001371
3949.7	0.0001204
3947.8	0.0001074
3945.8	0.0001015
3943.9	0.0001006
3942.0	0.0000968
3940.1	0.0000848
3938.1	0.0000714
3936.2	0.0000727
3934.3	0.0000849
3932.3	0.0000813
3930.4	0.0000620
3928.5	0.0000523
3926.6	0.0000506
3924.6	0.0000430
3922.7	0.0000356
3920.8	0.0000378
3918.8	0.0000450
3916.9	0.0000427
3915.0	0.0000267
3913.1	0.0000130
3911.1	0.0000120
3909.2	0.0000100
3907.3	-0.0000036
3905.3	-0.0000181
3903.4	-0.0000307
3901.5	-0.0000363
3899.6	-0.0000289
3897.6	-0.0000238
3895.7	-0.0000375
3893.8	-0.0000578
3891.8	-0.0000655
3889.9	-0.0000665
3888.0	-0.0000744
3886.1	-0.0000837
3884.1	-0.0000835
3882.2	-0.0000756
3880.3	-0.0000712
3878.3	-0.0000782
3876.4	-0.0000921
3874.5	-0.0001060
3872.6	-0.0001161
3870.6	-0.0001211
3868.7	-0.0001293
3866.8	-0.0001414
3864.8	-0.0001460
3862.9	-0.0001442
3861.0	-0.0001464
3859.1	-0.0001567
3857.1	-0.0001655
3855.2	-0.0001536
3853.3	-0.0001267
3851.3	-0.0001211
3849.4	-0.0001361
3847.5	-0.0001415
3845.6	-0.0001380
3843.6	-0.0001359
3841.7	-0.0001358
3839.8	-0.0001304
3837.8	-0.0001207
3835.9	-0.0001189
3834.0	-0.0001260
3832.1	-0.0001303
3830.1	-0.0001271
3828.2	-0.0001199
3826.3	-0.0001180
3824.3	-0.0001276
3822.4	-0.0001390
3820.5	-0.0001448
3818.6	-0.0001441
3816.6	-0.0001330
3814.7	-0.0001233
3812.8	-0.0001289
3810.8	-0.0001384
3808.9	-0.0001360
3807.0	-0.0001279
3805.1	-0.0001296
3803.1	-0.0001366
3801.2	-0.0001355
3799.3	-0.0001355
3797.3	-0.0001405
3795.4	-0.0001338
3793.5	-0.0001092
3791.6	-0.0000758
3789.6	-0.0000499
3787.7	-0.0000507
3785.8	-0.0000659
3783.8	-0.0000715
3781.9	-0.0000655
3780.0	-0.0000609
3778.1	-0.0000611
3776.1	-0.0000600
3774.2	-0.0000540
3772.3	-0.0000511
3770.3	-0.0000610
3768.4	-0.0000787
3766.5	-0.0000924
3764.6	-0.0001004
3762.6	-0.0001023
3760.7	-0.0000975
3758.8	-0.0000948
3756.8	-0.0001043
3754.9	-0.0001213
3753.0	-0.0001318
3751.1	-0.0001315
3749.1	-0.0001305
3747.2	-0.0001316
3745.3	-0.0001314
3743.3	-0.0001337
3741.4	-0.0001421
3739.5	-0.0001446
3737.6	-0.0001340
3735.6	-0.0001242
3733.7	-0.0001261
3731.8	-0.0001294
3729.8	-0.0001204
3727.9	-0.0001025
3726.0	-0.0000864
3724.1	-0.0000748
3722.1	-0.0000631
3720.2	-0.0000519
3718.3	-0.0000472
3716.3	-0.0000459
3714.4	-0.0000379
3712.5	-0.0000256
3710.6	-0.0000156
3708.6	-0.0000039
3706.7	0.0000081
3704.8	0.0000086
3702.8	0.0000072
3700.9	0.0000243
3699.0	0.0000487
3697.1	0.0000578
3695.1	0.0000538
3693.2	0.0000535
3691.3	0.0000582
3689.3	0.0000675
3687.4	0.0000789
3685.5	0.0000809
3683.6	0.0000763
3681.6	0.0000793
3679.7	0.0000971
3677.8	0.0001233
3675.8	0.0001325
3673.9	0.0001045
3672.0	0.0000657
3670.1	0.0000565
3668.1	0.0000729
3666.2	0.0000905
3664.3	0.0001044
3662.3	0.0001140
3660.4	0.0001053
3658.5	0.0000868
3656.6	0.0000806
3654.6	0.0000870
3652.7	0.0000952
3650.8	0.0001072
3648.8	0.0001179
3646.9	0.0001193
3645.0	0.0001128
3643.1	0.0001013
3641.1	0.0000922
3639.2	0.0000911
3637.3	0.0000922
3635.3	0.0000857
3633.4	0.0000703
3631.5	0.0000562
3629.6	0.0000526
3627.6	0.0000510
3625.7	0.0000487
3623.8	0.0000539
3621.8	0.0000632
3619.9	0.0000732
3618.0	0.0000828
3616.1	0.0000844
3614.1	0.0000777
3612.2	0.0000710
3610.3	0.0000686
3608.3	0.0000667
3606.4	0.0000585
3604.5	0.0000469
3602.6	0.0000426
3600.6	0.0000460
3598.7	0.0000490
3596.8	0.0000477
3594.8	0.0000412
3592.9	0.0000376
3591.0	0.0000482
3589.1	0.0000646
3587.1	0.0000670
3585.2	0.0000606
3583.3	0.0000628
3581.3	0.0000661
3579.4	0.0000544
3577.5	0.0000395
3575.6	0.0000404
3573.6	0.0000504
3571.7	0.0000539
3569.8	0.0000467
3567.8	0.0000351
3565.9	0.0000195
3564.0	-0.0000005
3562.1	-0.0000134
3560.1	-0.0000112
3558.2	-0.0000030
3556.3	0.0000020
3554.3	0.0000083
3552.4	0.0000182
3550.5	0.0000207
3548.6	0.0000156
3546.6	0.0000134
3544.7	0.0000106
3542.8	0.0000062
3540.8	0.0000094
3538.9	0.0000154
3537.0	0.0000118
3535.1	0.0000024
3533.1	-0.0000017
3531.2	-0.0000035
3529.3	-0.0000089
3527.3	-0.0000148
3525.4	-0.0000099
3523.5	0.0000048
3521.6	0.0000139
3519.6	0.0000118
3517.7	0.0000044
3515.8	-0.0000005
3513.8	0.0000012
3511.9	0.0000016
3510.0	-0.0000035
3508.1	-0.0000100
3506.1	-0.0000081
3504.2	0.0000007
3502.3	-0.0000023
3500.3	-0.0000202
3498.4	-0.0000315
3496.5	-0.0000307
3494.6	-0.0000256
3492.6	-0.0000126
3490.7	0.0000001
3488.8	-0.0000040
3486.8	-0.0000151
3484.9	-0.0000161
3483.0	-0.0000113
3481.1	-0.0000104
3479.1	-0.0000127
3477.2	-0.0000173
3475.3	-0.0000212
3473.3	-0.0000248
3471.4	-0.0000288
3469.5	-0.0000261
3467.6	-0.0000154
3465.6	-0.0000020
3463.7	0.0000160
3461.8	0.0000316
3459.8	0.0000262
3457.9	0.0000018
3456.0	-0.0000145
3454.1	-0.0000079
3452.1	0.0000114
3450.2	0.0000283
3448.3	0.0000407
3446.3	0.0000434
3444.4	0.0000340
3442.5	0.0000263
3440.6	0.0000266
3438.6	0.0000343
3436.7	0.0000533
3434.8	0.0000693
3432.8	0.0000641
3430.9	0.0000509
3429.0	0.0000473
3427.1	0.0000501
3425.1	0.0000469
3423.2	0.0000317
3421.3	0.0000187
3419.3	0.0000175
3417.4	0.0000218
3415.5	0.0000308
3413.6	0.0000422
3411.6	0.0000445
3409.7	0.0000432
3407.8	0.0000482
3405.8	0.0000556
3403.9	0.0000590
3402.0	0.0000613
3400.1	0.0000634
3398.1	0.0000635
3396.2	0.0000431
3394.3	0.0000220
3392.3	0.0000142
3390.4	0.0000169
3388.5	0.0000251
3386.6	0.0000275
3384.6	0.0000259
3382.7	0.0000285
3380.8	0.0000322
3378.8	0.0000298
3376.9	0.0000191
3375.0	0.0000020
3373.1	-0.0000053
3371.1	0.0000093
3369.2	0.0000299
3367.3	0.0000352
3365.3	0.0000250
3363.4	0.0000069
3361.5	-0.0000109
3359.6	-0.0000225
3357.6	-0.0000182
3355.7	0.0000096
3353.8	0.0000395
3351.8	0.0000451
3349.9	0.0000348
3348.0	0.0000323
3346.1	0.0000396
3344.1	0.0000388
3342.2	0.0000232
3340.3	0.0000096
3338.3	0.0000109
3336.4	0.0000198
3334.5	0.0000261
3332.6	0.0000302
3330.6	0.0000347
3328.7	0.0000335
3326.8	0.0000319
3324.8	0.0000340
3322.9	0.0000333
3321.0	0.0000323
3319.1	0.0000290
3317.1	0.0000186
3315.2	0.0000153
3313.3	0.0000194
3311.3	0.0000179
3309.4	0.0000231
3307.5	0.0000461
3305.6	0.0000635
3303.6	0.0000597
3301.7	0.0000514
3299.8	0.0000501
3297.8	0.0000559
3295.9	0.0000665
3294.0	0.0000739
3292.1	0.0000675
3290.1	0.0000521
3288.2	0.0000436
3286.3	0.0000450
3284.3	0.0000416
3282.4	0.0000230
3280.5	0.0000112
3278.6	0.0000222
3276.6	0.0000398
3274.7	0.0000554
3272.8	0.0000706
3270.8	0.0000767
3268.9	0.0000729
3267.0	0.0000687
3265.1	0.0000685
3263.1	0.0000774
3261.2	0.0000865
3259.3	0.0000837
3257.3	0.0000759
3255.4	0.0000692
3253.5	0.0000652
3251.6	0.0000672
3249.6	0.0000753
3247.7	0.0000828
3245.8	0.0000860
3243.8	0.0000870
3241.9	0.0000901
3240.0	0.0000897
3238.1	0.0000847
3236.1	0.0000852
3234.2	0.0000928
3232.3	0.0000920
3230.3	0.0000827
3228.4	0.0000835
3226.5	0.0000923
3224.6	0.0000933
3222.6	0.0000926
3220.7	0.0000939
3218.8	0.0000888
3216.8	0.0000837
3214.9	0.0000840
3213.0	0.0000853
3211.1	0.0000884
3209.1	0.0000920
3207.2	0.0000910
3205.3	0.0000882
3203.3	0.0000916
3201.4	0.0001015
3199.5	0.0001115
3197.6	0.0001179
3195.6	0.0001167
3193.7	0.0001040
3191.8	0.0000899
3189.8	0.0000834
3187.9	0.0000824
3186.0	0.0000900
3184.1	0.0001036
3182.1	0.0001092
3180.2	0.0001050
3178.3	0.0001009
3176.3	0.0001004
3174.4	0.0001014
3172.5	0.0001023
3170.6	0.0000991
3168.6	0.0000967
3166.7	0.0001037
3164.8	0.0001138
3162.8	0.0001147
3160.9	0.0001085
3159.0	0.0001006
3157.1	0.0000922
3155.1	0.0000852
3153.2	0.0000831
3151.3	0.0000858
3149.3	0.0000916
3147.4	0.0000976
3145.5	0.0001039
3143.6	0.0001130
3141.6	0.0001228
3139.7	0.0001239
3137.8	0.0001094
3135.8	0.0000922
3133.9	0.0000881
3132.0	0.0000884
3130.1	0.0000885
3128.1	0.0000985
3126.2	0.0001144
3124.3	0.0001211
3122.3	0.0001221
3120.4	0.0001246
3118.5	0.0001258
3116.6	0.0001204
3114.6	0.0001135
3112.7	0.0001104
3110.8	0.0001073
3108.8	0.0001019
3106.9	0.0000967
3105.0	0.0000957
3103.1	0.0000906
3101.1	0.0000772
3099.2	0.0000678
3097.3	0.0000706
3095.3	0.0000768
3093.4	0.0000759
3091.5	0.0000729
3089.6	0.0000781
3087.6	0.0000937
3085.7	0.0001016
3083.8	0.0000891
3081.8	0.0000703
3079.9	0.0000624
3078.0	0.0000627
3076.1	0.0000632
3074.1	0.0000631
3072.2	0.0000578
3070.3	0.0000563
3068.3	0.0000669
3066.4	0.0000767
3064.5	0.0000740
3062.6	0.0000672
3060.6	0.0000609
3058.7	0.0000519
3056.8	0.0000406
3054.8	0.0000359
3052.9	0.0000398
3051.0	0.0000454
3049.1	0.0000442
3047.1	0.0000374
3045.2	0.0000384
3043.3	0.0000486
3041.3	0.0000567
3039.4	0.0000489
3037.5	0.0000313
3035.6	0.0000222
3033.6	0.0000261
3031.7	0.0000352
3029.8	0.0000408
3027.8	0.0000432
3025.9	0.0000491
3024.0	0.0000598
3022.1	0.0000734
3020.1	0.0000967
3018.2	0.0001265
3016.3	0.0001347
3014.3	0.0001101
3012.4	0.0000784
3010.5	0.0000609
3008.6	0.0000490
3006.6	0.0000309
3004.7	0.0000130
3002.8	0.0000023
3000.8	0.0000006
2998.9	0.0000116
2997.0	0.0000054
2995.1	-0.0000069
2993.1	-0.0000149
2991.2	-0.0000113
2989.3	-0.0000026
2987.3	-0.0000004
2985.4	-0.0000012
2983.5	0.0000036
2981.6	0.0000071
2979.6	-0.0000007
2977.7	-0.0000130
2975.8	-0.0000139
2973.8	-0.0000044
2971.9	0.0000018
2970.0	0.0000061
2968.1	0.0000147
2966.1	0.0000196
2964.2	0.0000164
2962.3	0.0000113
2960.3	0.0000113
2958.4	0.0000133
2956.5	0.0000085
2954.6	0.0000006
2952.6	-0.0000008
2950.7	0.0000037
2948.8	0.0000104
2946.8	0.0000134
2944.9	0.0000051
2943.0	-0.0000088
2941.1	-0.0000143
2939.1	-0.0000129
2937.2	-0.0000124
2935.3	-0.0000102
2933.3	-0.0000023
2931.4	0.0000062
2929.5	0.0000046
2927.6	-0.0000037
2925.6	-0.0000047
2923.7	0.0000034
2921.8	0.0000148
2919.8	0.0000253
2917.9	0.0000291
2916.0	0.0000251
2914.1	0.0000200
2912.1	0.0000193
2910.2	0.0000205
2908.3	0.0000194
2906.3	0.0000174
2904.4	0.0000179
2902.5	0.0000199
2900.6	0.0000215
2898.6	0.0000218
2896.7	0.0000179
2894.8	0.0000140
2892.8	0.0000163
2890.9	0.0000169
2889.0	0.0000094
2887.1	0.0000014
2885.1	-0.0000044
2883.2	-0.0000155
2881.3	-0.0000289
2879.3	-0.0000332
2877.4	-0.0000296
2875.5	-0.0000268
2873.6	-0.0000250
2871.6	-0.0000215
2869.7	-0.0000196
2867.8	-0.0000201
2865.8	-0.0000187
2863.9	-0.0000130
2862.0	-0.0000073
2860.1	-0.0000080
2858.1	-0.0000143
2856.2	-0.0000212
2854.3	-0.0000247
2852.3	-0.0000175
2850.4	-0.0000031
2848.5	0.0000024
2846.6	-0.0000060
2844.6	-0.0000210
2842.7	-0.0000340
2840.8	-0.0000407
2838.8	-0.0000437
2836.9	-0.0000483
2835.0	-0.0000518
2833.1	-0.0000457
2831.1	-0.0000355
2829.2	-0.0000343
2827.3	-0.0000377
2825.3	-0.0000367
2823.4	-0.0000349
2821.5	-0.0000363
2819.6	-0.0000386
2817.6	-0.0000417
2815.7	-0.0000467
2813.8	-0.0000546
2811.8	-0.0000613
2809.9	-0.0000583
2808.0	-0.0000499
2806.1	-0.0000454
2804.1	-0.0000425
2802.2	-0.0000391
2800.3	-0.0000420
2798.3	-0.0000522
2796.4	-0.0000591
2794.5	-0.0000552
2792.6	-0.0000455
2790.6	-0.0000393
2788.7	-0.0000389
2786.8	-0.0000377
2784.8	-0.0000360
2782.9	-0.0000408
2781.0	-0.0000489
2779.1	-0.0000525
2777.1	-0.0000520
2775.2	-0.0000503
2773.3	-0.0000454
2771.3	-0.0000358
2769.4	-0.0000306
2767.5	-0.0000375
2765.6	-0.0000485
2763.6	-0.0000545
2761.7	-0.0000538
2759.8	-0.0000495
2757.8	-0.0000480
2755.9	-0.0000497
2754.0	-0.0000493
2752.1	-0.0000438
2750.1	-0.0000357
2748.2	-0.0000285
2746.3	-0.0000239
2744.3	-0.0000251
2742.4	-0.0000308
2740.5	-0.0000323
2738.6	-0.0000293
2736.6	-0.0000323
2734.7	-0.0000412
2732.8	-0.0000458
2730.8	-0.0000440
2728.9	-0.0000429
2727.0	-0.0000452
2725.1	-0.0000458
2723.1	-0.0000451
2721.2	-0.0000442
2719.3	-0.0000404
2717.3	-0.0000361
2715.4	-0.0000368
2713.5	-0.0000409
2711.6	-0.0000417
2709.6	-0.0000375
2707.7	-0.0000326
2705.8	-0.0000303
2703.8	-0.0000330
2701.9	-0.0000381
2700.0	-0.0000386
2698.1	-0.0000324
2696.1	-0.0000250
2694.2	-0.0000243
2692.3	-0.0000340
2690.3	-0.0000443
2688.4	-0.0000448
2686.5	-0.0000398
2684.6	-0.0000373
2682.6	-0.0000376
2680.7	-0.0000343
2678.8	-0.0000263
2676.8	-0.0000236
2674.9	-0.0000312
2673.0	-0.0000392
2671.1	-0.0000387
2669.1	-0.0000308
2667.2	-0.0000230
2665.3	-0.0000252
2663.3	-0.0000354
2661.4	-0.0000386
2659.5	-0.0000312
2657.6	-0.0000227
2655.6	-0.0000197
2653.7	-0.0000245
2651.8	-0.0000319
2649.8	-0.0000353
2647.9	-0.0000390
2646.0	-0.0000462
2644.1	-0.0000514
2642.1	-0.0000553
2640.2	-0.0000624
2638.3	-0.0000681
2636.3	-0.0000656
2634.4	-0.0000609
2632.5	-0.0000624
2630.6	-0.0000677
2628.6	-0.0000705
2626.7	-0.0000693
2624.8	-0.0000673
2622.8	-0.0000688
2620.9	-0.0000716
2619.0	-0.0000711
2617.1	-0.0000695
2615.1	-0.0000722
2613.2	-0.0000768
2611.3	-0.0000796
2609.3	-0.0000807
2607.4	-0.0000784
2605.5	-0.0000752
2603.6	-0.0000759
2601.6	-0.0000804
2599.7	-0.0000872
2597.8	-0.0000919
2595.8	-0.0000918
2593.9	-0.0000895
2592.0	-0.0000875
2590.1	-0.0000882
2588.1	-0.0000890
2586.2	-0.0000880
2584.3	-0.0000860
2582.3	-0.0000808
2580.4	-0.0000761
2578.5	-0.0000795
2576.6	-0.0000850
2574.6	-0.0000833
2572.7	-0.0000785
2570.8	-0.0000799
2568.8	-0.0000884
2566.9	-0.0000971
2565.0	-0.0001028
2563.1	-0.0001043
2561.1	-0.0000982
2559.2	-0.0000903
2557.3	-0.0000905
2555.3	-0.0000966
2553.4	-0.0000992
2551.5	-0.0000913
2549.6	-0.0000785
2547.6	-0.0000747
2545.7	-0.0000765
2543.8	-0.0000748
2541.8	-0.0000734
2539.9	-0.0000718
2538.0	-0.0000675
2536.1	-0.0000667
2534.1	-0.0000700
2532.2	-0.0000688
2530.3	-0.0000634
2528.3	-0.0000621
2526.4	-0.0000663
2524.5	-0.0000716
2522.6	-0.0000745
2520.6	-0.0000764
2518.7	-0.0000787
2516.8	-0.0000753
2514.8	-0.0000630
2512.9	-0.0000520
2511.0	-0.0000534
2509.1	-0.0000630
2507.1	-0.0000666
2505.2	-0.0000653
2503.3	-0.0000664
2501.3	-0.0000630
2499.4	-0.0000538
2497.5	-0.0000520
2495.6	-0.0000571
2493.6	-0.0000559
2491.7	-0.0000516
2489.8	-0.0000552
2487.8	-0.0000617
2485.9	-0.0000632
2484.0	-0.0000608
2482.1	-0.0000600
2480.1	-0.0000647
2478.2	-0.0000717
2476.3	-0.0000769
2474.3	-0.0000791
2472.4	-0.0000777
2470.5	-0.0000745
2468.6	-0.0000672
2466.6	-0.0000587
2464.7	-0.0000572
2462.8	-0.0000561
2460.8	-0.0000526
2458.9	-0.0000548
2457.0	-0.0000602
2455.1	-0.0000621
2453.1	-0.0000611
2451.2	-0.0000571
2449.3	-0.0000502
2447.3	-0.0000451
2445.4	-0.0000460
2443.5	-0.0000521
2441.6	-0.0000548
2439.6	-0.0000496
2437.7	-0.0000472
2435.8	-0.0000504
2433.8	-0.0000504
2431.9	-0.0000501
2430.0	-0.0000561
2428.1	-0.0000620
2426.1	-0.0000572
2424.2	-0.0000477
2422.3	-0.0000462
2420.3	-0.0000448
2418.4	-0.0000357
2416.5	-0.0000306
2414.6	-0.0000327
2412.6	-0.0000360
2410.7	-0.0000409
2408.8	-0.0000418
2406.8	-0.0000339
2404.9	-0.0000250
2403.0	-0.0000215
2401.1	-0.0000238
2399.1	-0.0000305
2397.2	-0.0000385
2395.3	-0.0000441
2393.3	-0.0000440
2391.4	-0.0000395
2389.5	-0.0000345
2387.6	-0.0000300
2385.6	-0.0000276
2383.7	-0.0000299
2381.8	-0.0000340
2379.8	-0.0000418
2377.9	-0.0000567
2376.0	-0.0000718
2374.1	-0.0000786
2372.1	-0.0000801
2370.2	-0.0000815
2368.3	-0.0000825
2366.3	-0.0000884
2364.4	-0.0001043
2362.5	-0.0001212
2360.6	-0.0001285
2358.6	-0.0001271
2356.7	-0.0001188
2354.8	-0.0001025
2352.8	-0.0000843
2350.9	-0.0000704
2349.0	-0.0000681
2347.1	-0.0000801
2345.1	-0.0000953
2343.2	-0.0001082
2341.3	-0.0001203
2339.3	-0.0001240
2337.4	-0.0001153
2335.5	-0.0001055
2333.6	-0.0001013
2331.6	-0.0000993
2329.7	-0.0001018
2327.8	-0.0001084
2325.8	-0.0001092
2323.9	-0.0000978
2322.0	-0.0000824
2320.1	-0.0000758
2318.1	-0.0000726
2316.2	-0.0000622
2314.3	-0.0000509
2312.3	-0.0000479
2310.4	-0.0000509
2308.5	-0.0000554
2306.6	-0.0000588
2304.6	-0.0000574
2302.7	-0.0000497
2300.8	-0.0000392
2298.8	-0.0000323
2296.9	-0.0000347
2295.0	-0.0000450
2293.1	-0.0000561
2291.1	-0.0000616
2289.2	-0.0000617
2287.3	-0.0000610
2285.3	-0.0000605
2283.4	-0.0000574
2281.5	-0.0000537
2279.6	-0.0000539
2277.6	-0.0000575
2275.7	-0.0000644
2273.8	-0.0000705
2271.8	-0.0000671
2269.9	-0.0000609
2268.0	-0.0000600
2266.1	-0.0000599
2264.1	-0.0000602
2262.2	-0.0000600
2260.3	-0.0000518
2258.3	-0.0000423
2256.4	-0.0000436
2254.5	-0.0000496
2252.6	-0.0000502
2250.6	-0.0000479
2248.7	-0.0000496
2246.8	-0.0000538
2244.8	-0.0000508
2242.9	-0.0000416
2241.0	-0.0000324
2239.1	-0.0000207
2237.1	-0.0000123
2235.2	-0.0000192
2233.3	-0.0000335
2231.3	-0.0000388
2229.4	-0.0000367
2227.5	-0.0000371
2225.6	-0.0000428
2223.6	-0.0000485
2221.7	-0.0000471
2219.8	-0.0000438
2217.8	-0.0000459
2215.9	-0.0000451
2214.0	-0.0000349
2212.1	-0.0000248
2210.1	-0.0000228
2208.2	-0.0000235
2206.3	-0.0000231
2204.3	-0.0000242
2202.4	-0.0000259
2200.5	-0.0000268
2198.6	-0.0000294
2196.6	-0.0000320
2194.7	-0.0000305
2192.8	-0.0000288
2190.8	-0.0000329
2188.9	-0.0000336
2187.0	-0.0000251
2185.1	-0.0000210
2183.1	-0.0000271
2181.2	-0.0000328
2179.3	-0.0000319
2177.3	-0.0000273
2175.4	-0.0000236
2173.5	-0.0000258
2171.6	-0.0000339
2169.6	-0.0000420
2167.7	-0.0000437
2165.8	-0.0000362
2163.8	-0.0000246
2161.9	-0.0000176
2160.0	-0.0000166
2158.1	-0.0000166
2156.1	-0.0000161
2154.2	-0.0000174
2152.3	-0.0000183
2150.3	-0.0000161
2148.4	-0.0000158
2146.5	-0.0000187
2144.6	-0.0000175
2142.6	-0.0000087
2140.7	0.0000018
2138.8	0.0000077
2136.8	0.0000072
2134.9	0.0000029
2133.0	0.0000027
2131.1	0.0000092
2129.1	0.0000154
2127.2	0.0000158
2125.3	0.0000113
2123.3	0.0000079
2121.4	0.0000107
2119.5	0.0000148
2117.6	0.0000103
2115.6	-0.0000012
2113.7	-0.0000050
2111.8	0.0000040
2109.8	0.0000131
2107.9	0.0000127
2106.0	0.0000093
2104.1	0.0000152
2102.1	0.0000279
2100.2	0.0000384
2098.3	0.0000713
2096.3	0.0000713
2094.4	0.0000802
2092.5	0.0001327
2090.6	0.0002502
2088.6	0.0003921
2086.7	0.0004438
2084.8	0.0003496
2082.8	0.0001939
2080.9	0.0000819
2079.0	0.0000365
2077.1	0.0000323
2075.1	0.0000446
2073.2	0.0000601
2071.3	0.0000737
2069.3	0.0000836
2067.4	0.0000907
2065.5	0.0000945
2063.6	0.0000917
2061.6	0.0000837
2059.7	0.0000773
2057.8	0.0000769
2055.8	0.0000793
2053.9	0.0000805
2052.0	0.0000839
2050.1	0.0000883
2048.1	0.0000832
2046.2	0.0000701
2044.3	0.0000606
2042.3	0.0000567
2040.4	0.0000535
2038.5	0.0000534
2036.6	0.0000578
2034.6	0.0000601
2032.7	0.0000594
2030.8	0.0000659
2028.8	0.0000726
2026.9	0.0000658
2025.0	0.0000541
2023.1	0.0000501
2021.1	0.0000513
2019.2	0.0000507
2017.3	0.0000486
2015.3	0.0000488
2013.4	0.0000523
2011.5	0.0000554
2009.6	0.0000544
2007.6	0.0000538
2005.7	0.0000583
2003.8	0.0000657
2001.8	0.0000713
1999.9	0.0000722
1998.0	0.0000714
1996.1	0.0000735
1994.1	0.0000790
1992.2	0.0000848
1990.3	0.0000879
1988.3	0.0000862
1986.4	0.0000805
1984.5	0.0000751
1982.6	0.0000727
1980.6	0.0000697
1978.7	0.0000647
1976.8	0.0000656
1974.8	0.0000786
1972.9	0.0000948
1971.0	0.0000992
1969.1	0.0000874
1967.1	0.0000709
1965.2	0.0000605
1963.3	0.0000749
1961.4	0.0001335
1959.4	0.0001904
1957.5	0.0001722
1955.6	0.0001078
1953.6	0.0000771
1951.7	0.0000838
1949.8	0.0000926
1947.9	0.0000919
1945.9	0.0000893
1944.0	0.0000922
1942.1	0.0000971
1940.1	0.0000999
1938.2	0.0001032
1936.3	0.0001055
1934.4	0.0001016
1932.4	0.0000979
1930.5	0.0000996
1928.6	0.0001000
1926.6	0.0000948
1924.7	0.0000875
1922.8	0.0000847
1920.9	0.0000866
1918.9	0.0000871
1917.0	0.0000830
1915.1	0.0000776
1913.1	0.0000727
1911.2	0.0000679
1909.3	0.0000669
1907.4	0.0000718
1905.4	0.0000790
1903.5	0.0000855
1901.6	0.0000893
1899.6	0.0000918
1897.7	0.0000920
1895.8	0.0000853
1893.9	0.0000760
1891.9	0.0000749
1890.0	0.0000822
1888.1	0.0000891
1886.1	0.0000912
1884.2	0.0000925
1882.3	0.0000956
1880.4	0.0000941
1878.4	0.0000879
1876.5	0.0000864
1874.6	0.0000892
1872.6	0.0000866
1870.7	0.0000766
1868.8	0.0000685
1866.9	0.0000668
1864.9	0.0000692
1863.0	0.0000703
1861.1	0.0000669
1859.1	0.0000637
1857.2	0.0000641
1855.3	0.0000609
1853.4	0.0000548
1851.4	0.0000570
1849.5	0.0000637
1847.6	0.0000646
1845.6	0.0000621
1843.7	0.0000619
1841.8	0.0000639
1839.9	0.0000634
1837.9	0.0000560
1836.0	0.0000508
1834.1	0.0000555
1832.1	0.0000592
1830.2	0.0000521
1828.3	0.0000449
1826.4	0.0000477
1824.4	0.0000554
1822.5	0.0000623
1820.6	0.0000705
1818.6	0.0000829
1816.7	0.0000927
1814.8	0.0000898
1812.9	0.0000799
1810.9	0.0000808
1809.0	0.0000936
1807.1	0.0001012
1805.1	0.0000991
1803.2	0.0000996
1801.3	0.0001050
1799.4	0.0001042
1797.4	0.0000965
1795.5	0.0000912
1793.6	0.0000944
1791.6	0.0001037
1789.7	0.0001127
1787.8	0.0001231
1785.9	0.0001348
1783.9	0.0001346
1782.0	0.0001249
1780.1	0.0001262
1778.1	0.0001382
1776.2	0.0001407
1774.3	0.0001359
1772.4	0.0001441
1770.4	0.0001596
1768.5	0.0001600
1766.6	0.0001428
1764.6	0.0001250
1762.7	0.0001191
1760.8	0.0001169
1758.9	0.0001061
1756.9	0.0000880
1755.0	0.0000705
1753.1	0.0000610
1751.1	0.0000613
1749.2	0.0000636
1747.3	0.0000607
1745.4	0.0000554
1743.4	0.0000511
1741.5	0.0000535
1739.6	0.0000695
1737.6	0.0000942
1735.7	0.0001107
1733.8	0.0001133
1731.9	0.0001116
1729.9	0.0001083
1728.0	0.0000998
1726.1	0.0000886
1724.1	0.0000735
1722.2	0.0000515
1720.3	0.0000293
1718.4	0.0000182
1716.4	0.0000138
1714.5	0.0000014
1712.6	-0.0000153
1710.6	-0.0000189
1708.7	-0.0000106
1706.8	-0.0000042
1704.9	-0.0000111
1702.9	-0.0000283
1701.0	-0.0000441
1699.1	-0.0000636
1697.1	-0.0000945
1695.2	-0.0001295
1693.3	-0.0001626
1691.4	-0.0001885
1689.4	-0.0002071
1687.5	-0.0002282
1685.6	-0.0002409
1683.6	-0.0002258
1681.7	-0.0001977
1679.8	-0.0001756
1677.9	-0.0001494
1675.9	-0.0001097
1674.0	-0.0000739
1672.1	-0.0000612
1670.1	-0.0000620
1668.2	-0.0000579
1666.3	-0.0000546
1664.4	-0.0000614
1662.4	-0.0000654
1660.5	-0.0000557
1658.6	-0.0000443
1656.6	-0.0000454
1654.7	-0.0000576
1652.8	-0.0000726
1650.9	-0.0000951
1648.9	-0.0001308
1647.0	-0.0001723
1645.1	-0.0002133
1643.1	-0.0002506
1641.2	-0.0002736
1639.3	-0.0002737
1637.4	-0.0002457
1635.4	-0.0002052
1633.5	-0.0001743
1631.6	-0.0001533
1629.6	-0.0001326
1627.7	-0.0001127
1625.8	-0.0001010
1623.9	-0.0001030
1621.9	-0.0001125
1620.0	-0.0001234
1618.1	-0.0001371
1616.1	-0.0001508
1614.2	-0.0001555
1612.3	-0.0001507
1610.4	-0.0001491
1608.4	-0.0001569
1606.5	-0.0001636
1604.6	-0.0001587
1602.6	-0.0001333
1600.7	-0.0000812
1598.8	-0.0000212
1596.9	0.0000129
1594.9	0.0000136
1593.0	0.0000006
1591.1	-0.0000154
1589.1	-0.0000357
1587.2	-0.0000573
1585.3	-0.0000754
1583.4	-0.0000837
1581.4	-0.0000721
1579.5	-0.0000402
1577.6	-0.0000076
1575.6	0.0000005
1573.7	-0.0000153
1571.8	-0.0000299
1569.9	-0.0000360
1567.9	-0.0000393
1566.0	-0.0000312
1564.1	-0.0000141
1562.1	-0.0000072
1560.2	-0.0000166
1558.3	-0.0000372
1556.4	-0.0000601
1554.4	-0.0000716
1552.5	-0.0000680
1550.6	-0.0000520
1548.6	-0.0000274
1546.7	0.0000048
1544.8	0.0000501
1542.9	0.0001078
1540.9	0.0001662
1539.0	0.0001971
1537.1	0.0001732
1535.1	0.0001101
1533.2	0.0000448
1531.3	-0.0000187
1529.4	-0.0000917
1527.4	-0.0001664
1525.5	-0.0002318
1523.6	-0.0002929
1521.6	-0.0003560
1519.7	-0.0003987
1517.8	-0.0003644
1515.9	-0.0002141
1513.9	0.0000345
1512.0	0.0003098
1510.1	0.0005272
1508.1	0.0006458
1506.2	0.0006786
1504.3	0.0006495
1502.4	0.0005701
1500.4	0.0004350
1498.5	0.0002448
1496.6	0.0000395
1494.6	-0.0001206
1492.7	-0.0002088
1490.8	-0.0002415
1488.9	-0.0002340
1486.9	-0.0001912
1485.0	-0.0001196
1483.1	-0.0000495
1481.1	-0.0000084
1479.2	0.0000161
1477.3	0.0000431
1475.4	0.0000664
1473.4	0.0000865
1471.5	0.0001143
1469.6	0.0001326
1467.6	0.0001197
1465.7	0.0000824
1463.8	0.0000437
1461.9	0.0000236
1459.9	0.0000281
1458.0	0.0000451
1456.1	0.0000594
1454.1	0.0000699
1452.2	0.0000842
1450.3	0.0001012
1448.4	0.0001080
1446.4	0.0000918
1444.5	0.0000564
1442.6	0.0000260
1440.6	0.0000254
1438.7	0.0000558
1436.8	0.0000884
1434.9	0.0000887
1432.9	0.0000495
1431.0	-0.0000064
1429.1	-0.0000505
1427.1	-0.0000716
1425.2	-0.0000761
1423.3	-0.0000680
1421.4	-0.0000450
1419.4	-0.0000165
1417.5	0.0000021
1415.6	0.0000134
1413.6	0.0000257
1411.7	0.0000356
1409.8	0.0000288
1407.9	-0.0000127
1405.9	-0.0000889
1404.0	-0.0001717
1402.1	-0.0002243
1400.1	-0.0002333
1398.2	-0.0002127
1396.3	-0.0001860
1394.4	-0.0001591
1392.4	-0.0001223
1390.5	-0.0000619
1388.6	0.0000429
1386.6	0.0001957
1384.7	0.0003294
1382.8	0.0003610
1380.9	0.0003088
1378.9	0.0002506
1377.0	0.0002117
1375.1	0.0001720
1373.1	0.0001184
1371.2	0.0000556
1369.3	0.0000014
1367.4	-0.0000283
1365.4	-0.0000344
1363.5	-0.0000279
1361.6	-0.0000158
1359.6	0.0000019
1357.7	0.0000197
1355.8	0.0000286
1353.9	0.0000336
1351.9	0.0000445
1350.0	0.0000593
1348.1	0.0000729
1346.1	0.0000830
1344.2	0.0000909
1342.3	0.0001002
1340.4	0.0001082
1338.4	0.0001094
1336.5	0.0001138
1334.6	0.0001363
1332.6	0.0001664
1330.7	0.0001860
1328.8	0.0001949
1326.9	0.0001933
1324.9	0.0001758
1323.0	0.0001455
1321.1	0.0001133
1319.1	0.0000860
1317.2	0.0000601
1315.3	0.0000353
1313.4	0.0000245
1311.4	0.0000261
1309.5	0.0000187
1307.6	-0.0000027
1305.6	-0.0000290
1303.7	-0.0000583
1301.8	-0.0000840
1299.9	-0.0000950
1297.9	-0.0000861
1296.0	-0.0000615
1294.1	-0.0000364
1292.1	-0.0000280
1290.2	-0.0000290
1288.3	-0.0000203
1286.4	-0.0000034
1284.4	0.0000073
1282.5	0.0000056
1280.6	-0.0000065
1278.6	-0.0000267
1276.7	-0.0000561
1274.8	-0.0000905
1272.9	-0.0001208
1270.9	-0.0001426
1269.0	-0.0001565
1267.1	-0.0001561
1265.1	-0.0001307
1263.2	-0.0000879
1261.3	-0.0000631
1259.4	-0.0000891
1257.4	-0.0001653
1255.5	-0.0002673
1253.6	-0.0003732
1251.6	-0.0004565
1249.7	-0.0004922
1247.8	-0.0004971
1245.9	-0.0004933
1243.9	-0.0004762
1242.0	-0.0004368
1240.1	-0.0003974
1238.1	-0.0003832
1236.2	-0.0003908
1234.3	-0.0003990
1232.4	-0.0003992
1230.4	-0.0004076
1228.5	-0.0004358
1226.6	-0.0004689
1224.6	-0.0004906
1222.7	-0.0004910
1220.8	-0.0004750
1218.9	-0.0004501
1216.9	-0.0004189
1215.0	-0.0003888
1213.1	-0.0003678
1211.1	-0.0003459
1209.2	-0.0003155
1207.3	-0.0002916
1205.4	-0.0002844
1203.4	-0.0002862
1201.5	-0.0002739
1199.6	-0.0002047
1197.6	-0.0001932
1195.7	-0.0001851
1193.8	-0.0001771
1191.9	-0.0001839
1189.9	-0.0002088
1188.0	-0.0002304
1186.1	-0.0002391
1184.1	-0.0002534
1182.2	-0.0002746
1180.3	-0.0002781
1178.4	-0.0002628
1176.4	-0.0002454
1174.5	-0.0002265
1172.6	-0.0001978
1170.6	-0.0001669
1168.7	-0.0001503
1166.8	-0.0001480
1164.9	-0.0001406
1162.9	-0.0001210
1161.0	-0.0001106
1159.1	-0.0001188
1157.1	-0.0001232
1155.2	-0.0001090
1153.3	-0.0000876
1151.4	-0.0000716
1149.4	-0.0000575
1147.5	-0.0000412
1145.6	-0.0000272
1143.6	-0.0000189
1141.7	-0.0000185
1139.8	-0.0000253
1137.9	-0.0000359
1135.9	-0.0000397
1134.0	-0.0000256
1132.1	-0.0000080
1130.1	-0.0000094
1128.2	-0.0000210
1126.3	-0.0000220
1124.4	-0.0000175
1122.4	-0.0000206
1120.5	-0.0000237
1118.6	-0.0000206
1116.6	-0.0000160
1114.7	-0.0000147
1112.8	-0.0000143
1110.9	-0.0000079
1108.9	-0.0000024
1107.0	-0.0000084
1105.1	-0.0000159
1103.1	-0.0000093
1101.2	-0.0000003
1099.3	0.0000006
1097.4	0.0000128
1095.4	0.0000418
1093.5	0.0000599
1091.6	0.0000499
1089.6	0.0000307
1087.7	0.0000272
1085.8	0.0000343
1083.9	0.0000352
1081.9	0.0000419
1080.0	0.0000699
1078.1	0.0001046
1076.1	0.0001299
1074.2	0.0001427
1072.3	0.0001432
1070.4	0.0001329
1068.4	0.0001181
1066.5	0.0001101
1064.6	0.0001122
1062.6	0.0001190
1060.7	0.0001262
1058.8	0.0001299
1056.9	0.0001242
1054.9	0.0000962
1053.0	0.0000461
1051.1	0.0000126
1049.1	0.0000158
1047.2	0.0000167
1045.3	-0.0000019
1043.4	-0.0000063
1041.4	0.0000077
1039.5	0.0000037
1037.6	-0.0000251
1035.6	-0.0000510
1033.7	-0.0000588
1031.8	-0.0000563
1029.9	-0.0000642
1027.9	-0.0000897
1026.0	-0.0001143
1024.1	-0.0001271
1022.1	-0.0001351
1020.2	-0.0001434
1018.3	-0.0001524
1016.4	-0.0001647
1014.4	-0.0001756
1012.5	-0.0001742
1010.6	-0.0001663
1008.6	-0.0001607
1006.7	-0.0001490
1004.8	-0.0001289
1002.9	-0.0001165
1000.9	-0.0001213
999.0	-0.0001332
997.1	-0.0001371
995.1	-0.0001295
993.2	-0.0001202
991.3	-0.0001215
989.4	-0.0001311
987.4	-0.0001435
985.5	-0.0001558
983.6	-0.0001530
981.6	-0.0001348
979.7	-0.0001328
977.8	-0.0001569
975.9	-0.0001727
973.9	-0.0001582
972.0	-0.0001416
970.1	-0.0001473
968.1	-0.0001580
966.2	-0.0001516
964.3	-0.0001407
962.4	-0.0001447
960.4	-0.0001440
958.5	-0.0001200
956.6	-0.0000935
954.6	-0.0000793
952.7	-0.0000486
950.8	0.0000047
948.9	0.0000266
946.9	0.0000122
945.0	0.0000063
943.1	0.0000080
941.1	0.0000077
939.2	0.0000088
937.3	0.0000113
935.4	0.0000141
933.4	0.0000075
931.5	-0.0000088
929.6	-0.0000192
927.6	-0.0000176
925.7	-0.0000085
923.8	-0.0000034
921.9	-0.0000197
919.9	-0.0000516
918.0	-0.0000745
916.1	-0.0000785
914.1	-0.0000706
912.2	-0.0000698
910.3	-0.0000890
908.4	-0.0001022
906.4	-0.0000948
904.5	-0.0001013
902.6	-0.0001310
900.6	-0.0001509
898.7	-0.0001443
896.8	-0.0001395
894.9	-0.0001544
892.9	-0.0001892
891.0	-0.0002428
889.1	-0.0002064
887.1	0.0000193
885.2	0.0002850
883.3	0.0002086
881.4	-0.0002353
879.4	-0.0004093
877.5	-0.0002394
875.6	-0.0002642
873.6	-0.0003760
871.7	-0.0004866
869.8	-0.0007284
867.9	-0.0007474
865.9	-0.0004431
864.0	-0.0001353
862.1	-0.0000207
860.1	-0.0001405
858.2	-0.0003006
856.3	-0.0002846
854.4	-0.0001717
852.4	-0.0001498
850.5	-0.0002230
848.6	-0.0002692
