3997.9	-0.0000201
3996.0	-0.0000204
3994.1	-0.0000179
3992.1	-0.0000159
3990.2	-0.0000198
3988.3	-0.0000120
3986.3	0.0000127
3984.4	0.0000264
3982.5	0.0000157
3980.6	0.0000016
3978.6	0.0000028
3976.7	0.0000095
3974.8	0.0000051
3972.8	-0.0000035
3970.9	0.0000040
3969.0	0.0000228
3967.1	0.0000295
3965.1	0.0000200
3963.2	0.0000135
3961.3	0.0000200
3959.3	0.0000272
3957.4	0.0000192
3955.5	0.0000038
3953.6	0.0000019
3951.6	0.0000184
3949.7	0.0000427
3947.8	0.0000609
3945.8	0.0000621
3943.9	0.0000559
3942.0	0.0000550
3940.1	0.0000542
3938.1	0.0000566
3936.2	0.0000692
3934.3	0.0000808
3932.3	0.0000809
3930.4	0.0000776
3928.5	0.0000765
3926.6	0.0000647
3924.6	0.0000467
3922.7	0.0000509
3920.8	0.0000701
3918.8	0.0000749
3916.9	0.0000677
3915.0	0.0000666
3913.1	0.0000767
3911.1	0.0000867
3909.2	0.0000871
3907.3	0.0000892
3905.3	0.0001074
3903.4	0.0001295
3901.5	0.0001355
3899.6	0.0001255
3897.6	0.0001076
3895.7	0.0000921
3893.8	0.0000962
3891.8	0.0001148
3889.9	0.0001202
3888.0	0.0001165
3886.1	0.0001146
3884.1	0.0001006
3882.2	0.0000862
3880.3	0.0000840
3878.3	0.0000756
3876.4	0.0000614
3874.5	0.0000643
3872.6	0.0000971
3870.6	0.0001343
3868.7	0.0001375
3866.8	0.0001200
3864.8	0.0001043
3862.9	0.0000860
3861.0	0.0000684
3859.1	0.0000699
3857.1	0.0001219
3855.2	0.0002135
3853.3	0.0002426
3851.3	0.0001683
3849.4	0.0000920
3847.5	0.0000757
3845.6	0.0000860
3843.6	0.0000934
3841.7	0.0001018
3839.8	0.0001210
3837.8	0.0001317
3835.9	0.0001104
3834.0	0.0000762
3832.1	0.0000479
3830.1	0.0000283
3828.2	0.0000251
3826.3	0.0000262
3824.3	0.0000329
3822.4	0.0000620
3820.5	0.0000806
3818.6	0.0000795
3816.6	0.0000794
3814.7	0.0000545
3812.8	0.0000099
3810.8	-0.0000049
3808.9	0.0000253
3807.0	0.0000597
3805.1	0.0000660
3803.1	0.0000758
3801.2	0.0000861
3799.3	0.0000578
3797.3	0.0000153
3795.4	-0.0000127
3793.5	-0.0000298
3791.6	-0.0000412
3789.6	-0.0000529
3787.7	-0.0000628
3785.8	-0.0000656
3783.8	-0.0000618
3781.9	-0.0000469
3780.0	-0.0000304
3778.1	-0.0000355
3776.1	-0.0000539
3774.2	-0.0000557
3772.3	-0.0000312
3770.3	-0.0000067
3768.4	-0.0000134
3766.5	-0.0000377
3764.6	-0.0000556
3762.6	-0.0000601
3760.7	-0.0000499
3758.8	-0.0000432
3756.8	-0.0000449
3754.9	-0.0000294
3753.0	0.0000133
3751.1	0.0000458
3749.1	0.0000403
3747.2	0.0000429
3745.3	0.0000621
3743.3	0.0000249
3741.4	-0.0000496
3739.5	-0.0000733
3737.6	-0.0000444
3735.6	-0.0000217
3733.7	-0.0000368
3731.8	-0.0000726
3729.8	-0.0000985
3727.9	-0.0001113
3726.0	-0.0001209
3724.1	-0.0001198
3722.1	-0.0001049
3720.2	-0.0001013
3718.3	-0.0001175
3716.3	-0.0001225
3714.4	-0.0000909
3712.5	-0.0000516
3710.6	-0.0000566
3708.6	-0.0000992
3706.7	-0.0001337
3704.8	-0.0001426
3702.8	-0.0001358
3700.9	-0.0001350
3699.0	-0.0001464
3697.1	-0.0001514
3695.1	-0.0001428
3693.2	-0.0001214
3691.3	-0.0000827
3689.3	-0.0000577
3687.4	-0.0000887
3685.5	-0.0001451
3683.6	-0.0001746
3681.6	-0.0001833
3679.7	-0.0001763
3677.8	-0.0001251
3675.8	-0.0000707
3673.9	-0.0000723
3672.0	-0.0000844
3670.1	-0.0000888
3668.1	-0.0001276
3666.2	-0.0001718
3664.3	-0.0001867
3662.3	-0.0001932
3660.4	-0.0001900
3658.5	-0.0001551
3656.6	-0.0001199
3654.6	-0.0001155
3652.7	-0.0000975
3650.8	-0.0000479
3648.8	-0.0000288
3646.9	-0.0000649
3645.0	-0.0001089
3643.1	-0.0001317
3641.1	-0.0001465
3639.2	-0.0001540
3637.3	-0.0001402
3635.3	-0.0001149
3633.4	-0.0000915
3631.5	-0.0000503
3629.6	-0.0000054
3627.6	-0.0000130
3625.7	-0.0000541
3623.8	-0.0000666
3621.8	-0.0000464
3619.9	-0.0000249
3618.0	-0.0000216
3616.1	-0.0000256
3614.1	-0.0000186
3612.2	-0.0000036
3610.3	0.0000104
3608.3	0.0000160
3606.4	0.0000072
3604.5	-0.0000032
3602.6	-0.0000020
3600.6	0.0000052
3598.7	0.0000205
3596.8	0.0000459
3594.8	0.0000642
3592.9	0.0000717
3591.0	0.0000860
3589.1	0.0001058
3587.1	0.0001062
3585.2	0.0000875
3583.3	0.0000802
3581.3	0.0000905
3579.4	0.0001009
3577.5	0.0001141
3575.6	0.0001385
3573.6	0.0001582
3571.7	0.0001686
3569.8	0.0001915
3567.8	0.0002315
3565.9	0.0002596
3564.0	0.0002555
3562.1	0.0002397
3560.1	0.0002418
3558.2	0.0002570
3556.3	0.0002751
3554.3	0.0003057
3552.4	0.0003379
3550.5	0.0003518
3548.6	0.0003576
3546.6	0.0003691
3544.7	0.0003832
3542.8	0.0003949
3540.8	0.0004133
3538.9	0.0004441
3537.0	0.0004669
3535.1	0.0004702
3533.1	0.0004779
3531.2	0.0005053
3529.3	0.0005372
3527.3	0.0005666
3525.4	0.0005965
3523.5	0.0006250
3521.6	0.0006520
3519.6	0.0006736
3517.7	0.0006930
3515.8	0.0007183
3513.8	0.0007413
3511.9	0.0007606
3510.0	0.0007892
3508.1	0.0008220
3506.1	0.0008438
3504.2	0.0008593
3502.3	0.0008768
3500.3	0.0008952
3498.4	0.0009203
3496.5	0.0009482
3494.6	0.0009643
3492.6	0.0009751
3490.7	0.0009971
3488.8	0.0010191
3486.8	0.0010223
3484.9	0.0010220
3483.0	0.0010304
3481.1	0.0010358
3479.1	0.0010396
3477.2	0.0010434
3475.3	0.0010383
3473.3	0.0010338
3471.4	0.0010424
3469.5	0.0010568
3467.6	0.0010716
3465.6	0.0010856
3463.7	0.0010895
3461.8	0.0010862
3459.8	0.0010809
3457.9	0.0010718
3456.0	0.0010764
3454.1	0.0010957
3452.1	0.0010993
3450.2	0.0010896
3448.3	0.0010980
3446.3	0.0011265
3444.4	0.0011469
3442.5	0.0011434
3440.6	0.0011275
3438.6	0.0011230
3436.7	0.0011397
3434.8	0.0011603
3432.8	0.0011696
3430.9	0.0011690
3429.0	0.0011662
3427.1	0.0011692
3425.1	0.0011728
3423.2	0.0011687
3421.3	0.0011640
3419.3	0.0011645
3417.4	0.0011668
3415.5	0.0011696
3413.6	0.0011735
3411.6	0.0011734
3409.7	0.0011688
3407.8	0.0011732
3405.8	0.0011883
3403.9	0.0011963
3402.0	0.0011989
3400.1	0.0012053
3398.1	0.0012021
3396.2	0.0011910
3394.3	0.0011911
3392.3	0.0011935
3390.4	0.0011800
3388.5	0.0011594
3386.6	0.0011465
3384.6	0.0011433
3382.7	0.0011425
3380.8	0.0011314
3378.8	0.0011101
3376.9	0.0010915
3375.0	0.0010764
3373.1	0.0010662
3371.1	0.0010698
3369.2	0.0010709
3367.3	0.0010482
3365.3	0.0010233
3363.4	0.0010196
3361.5	0.0010262
3359.6	0.0010253
3357.6	0.0010104
3355.7	0.0009882
3353.8	0.0009682
3351.8	0.0009569
3349.9	0.0009531
3348.0	0.0009412
3346.1	0.0009229
3344.1	0.0009097
3342.2	0.0008946
3340.3	0.0008809
3338.3	0.0008797
3336.4	0.0008764
3334.5	0.0008614
3332.6	0.0008477
3330.6	0.0008378
3328.7	0.0008242
3326.8	0.0008105
3324.8	0.0007976
3322.9	0.0007821
3321.0	0.0007621
3319.1	0.0007405
3317.1	0.0007302
3315.2	0.0007300
3313.3	0.0007269
3311.3	0.0007217
3309.4	0.0007169
3307.5	0.0007077
3305.6	0.0006919
3303.6	0.0006740
3301.7	0.0006571
3299.8	0.0006427
3297.8	0.0006370
3295.9	0.0006343
3294.0	0.0006219
3292.1	0.0006070
3290.1	0.0006010
3288.2	0.0006002
3286.3	0.0005956
3284.3	0.0005806
3282.4	0.0005593
3280.5	0.0005380
3278.6	0.0005150
3276.6	0.0005002
3274.7	0.0005077
3272.8	0.0005248
3270.8	0.0005295
3268.9	0.0005189
3267.0	0.0004980
3265.1	0.0004706
3263.1	0.0004511
3261.2	0.0004473
3259.3	0.0004475
3257.3	0.0004431
3255.4	0.0004330
3253.5	0.0004206
3251.6	0.0004141
3249.6	0.0004114
3247.7	0.0004038
3245.8	0.0003914
3243.8	0.0003826
3241.9	0.0003787
3240.0	0.0003746
3238.1	0.0003692
3236.1	0.0003572
3234.2	0.0003380
3232.3	0.0003252
3230.3	0.0003220
3228.4	0.0003155
3226.5	0.0003081
3224.6	0.0003093
3222.6	0.0003078
3220.7	0.0002938
3218.8	0.0002785
3216.8	0.0002687
3214.9	0.0002611
3213.0	0.0002529
3211.1	0.0002426
3209.1	0.0002378
3207.2	0.0002422
3205.3	0.0002396
3203.3	0.0002248
3201.4	0.0002162
3199.5	0.0002179
3197.6	0.0002111
3195.6	0.0001931
3193.7	0.0001816
3191.8	0.0001785
3189.8	0.0001730
3187.9	0.0001701
3186.0	0.0001718
3184.1	0.0001606
3182.1	0.0001384
3180.2	0.0001303
3178.3	0.0001366
3176.3	0.0001363
3174.4	0.0001255
3172.5	0.0001127
3170.6	0.0001026
3168.6	0.0001031
3166.7	0.0001141
3164.8	0.0001148
3162.8	0.0000967
3160.9	0.0000801
3159.0	0.0000752
3157.1	0.0000688
3155.1	0.0000580
3153.2	0.0000540
3151.3	0.0000546
3149.3	0.0000504
3147.4	0.0000379
3145.5	0.0000167
3143.6	0.0000013
3141.6	0.0000088
3139.7	0.0000259
3137.8	0.0000319
3135.8	0.0000267
3133.9	0.0000148
3132.0	0.0000028
3130.1	-0.0000008
3128.1	0.0000002
3126.2	0.0000014
3124.3	0.0000039
3122.3	0.0000036
3120.4	-0.0000076
3118.5	-0.0000263
3116.6	-0.0000378
3114.6	-0.0000406
3112.7	-0.0000392
3110.8	-0.0000359
3108.8	-0.0000385
3106.9	-0.0000472
3105.0	-0.0000504
3103.1	-0.0000447
3101.1	-0.0000327
3099.2	-0.0000192
3097.3	-0.0000130
3095.3	-0.0000180
3093.4	-0.0000246
3091.5	-0.0000206
3089.6	-0.0000080
3087.6	0.0000068
3085.7	0.0000225
3083.8	0.0000372
3081.8	0.0000507
3079.9	0.0000615
3078.0	0.0000678
3076.1	0.0000788
3074.1	0.0000931
3072.2	0.0000978
3070.3	0.0000914
3068.3	0.0000855
3066.4	0.0000933
3064.5	0.0001074
3062.6	0.0001116
3060.6	0.0001092
3058.7	0.0001106
3056.8	0.0001160
3054.8	0.0001137
3052.9	0.0000950
3051.0	0.0000703
3049.1	0.0000477
3047.1	0.0000251
3045.2	0.0000057
3043.3	-0.0000080
3041.3	-0.0000193
3039.4	-0.0000269
3037.5	-0.0000197
3035.6	-0.0000025
3033.6	0.0000042
3031.7	0.0000043
3029.8	0.0000148
3027.8	0.0000290
3025.9	0.0000338
3024.0	0.0000356
3022.1	0.0000393
3020.1	0.0000308
3018.2	0.0000125
3016.3	0.0000130
3014.3	0.0000361
3012.4	0.0000548
3010.5	0.0000592
3008.6	0.0000601
3006.6	0.0000612
3004.7	0.0000584
3002.8	0.0000495
3000.8	0.0000325
2998.9	0.0000113
2997.0	-0.0000006
2995.1	0.0000000
2993.1	0.0000056
2991.2	0.0000143
2989.3	0.0000261
2987.3	0.0000385
2985.4	0.0000565
2983.5	0.0000847
2981.6	0.0001074
2979.6	0.0001242
2977.7	0.0001580
2975.8	0.0002037
2973.8	0.0002381
2971.9	0.0002593
2970.0	0.0002756
2968.1	0.0002906
2966.1	0.0003029
2964.2	0.0003109
2962.3	0.0003131
2960.3	0.0003101
2958.4	0.0003162
2956.5	0.0003376
2954.6	0.0003529
2952.6	0.0003415
2950.7	0.0003078
2948.8	0.0002776
2946.8	0.0002693
2944.9	0.0002728
2943.0	0.0002749
2941.1	0.0002770
2939.1	0.0002830
2937.2	0.0002962
2935.3	0.0003120
2933.3	0.0003142
2931.4	0.0002996
2929.5	0.0002797
2927.6	0.0002576
2925.6	0.0002325
2923.7	0.0002126
2921.8	0.0002056
2919.8	0.0002066
2917.9	0.0002091
2916.0	0.0002184
2914.1	0.0002336
2912.1	0.0002372
2910.2	0.0002240
2908.3	0.0002102
2906.3	0.0002052
2904.4	0.0001996
2902.5	0.0001865
2900.6	0.0001684
2898.6	0.0001489
2896.7	0.0001315
2894.8	0.0001184
2892.8	0.0001078
2890.9	0.0000948
2889.0	0.0000772
2887.1	0.0000564
2885.1	0.0000355
2883.2	0.0000214
2881.3	0.0000156
2879.3	0.0000099
2877.4	0.0000077
2875.5	0.0000166
2873.6	0.0000237
2871.6	0.0000204
2869.7	0.0000168
2867.8	0.0000216
2865.8	0.0000380
2863.9	0.0000587
2862.0	0.0000724
2860.1	0.0000834
2858.1	0.0000998
2856.2	0.0001189
2854.3	0.0001426
2852.3	0.0001810
2850.4	0.0002394
2848.5	0.0003169
2846.6	0.0004049
2844.6	0.0004832
2842.7	0.0005233
2840.8	0.0005056
2838.8	0.0004354
2836.9	0.0003385
2835.0	0.0002455
2833.1	0.0001739
2831.1	0.0001257
2829.2	0.0000939
2827.3	0.0000700
2825.3	0.0000518
2823.4	0.0000423
2821.5	0.0000414
2819.6	0.0000398
2817.6	0.0000351
2815.7	0.0000384
2813.8	0.0000546
2811.8	0.0000696
2809.9	0.0000676
2808.0	0.0000551
2806.1	0.0000494
2804.1	0.0000545
2802.2	0.0000625
2800.3	0.0000628
2798.3	0.0000567
2796.4	0.0000547
2794.5	0.0000595
2792.6	0.0000674
2790.6	0.0000714
2788.7	0.0000676
2786.8	0.0000597
2784.8	0.0000539
2782.9	0.0000513
2781.0	0.0000516
2779.1	0.0000578
2777.1	0.0000649
2775.2	0.0000652
2773.3	0.0000632
2771.3	0.0000656
2769.4	0.0000714
2767.5	0.0000726
2765.6	0.0000649
2763.6	0.0000571
2761.7	0.0000586
2759.8	0.0000660
2757.8	0.0000687
2755.9	0.0000617
2754.0	0.0000538
2752.1	0.0000522
2750.1	0.0000495
2748.2	0.0000423
2746.3	0.0000379
2744.3	0.0000378
2742.4	0.0000388
2740.5	0.0000397
2738.6	0.0000416
2736.6	0.0000440
2734.7	0.0000428
2732.8	0.0000360
2730.8	0.0000296
2728.9	0.0000290
2727.0	0.0000271
2725.1	0.0000179
2723.1	0.0000101
2721.2	0.0000079
2719.3	0.0000065
2717.3	0.0000050
2715.4	0.0000038
2713.5	0.0000002
2711.6	-0.0000020
2709.6	0.0000044
2707.7	0.0000129
2705.8	0.0000148
2703.8	0.0000129
2701.9	0.0000105
2700.0	0.0000062
2698.1	0.0000013
2696.1	-0.0000044
2694.2	-0.0000075
2692.3	-0.0000043
2690.3	0.0000000
2688.4	0.0000018
2686.5	0.0000005
2684.6	-0.0000051
2682.6	-0.0000099
2680.7	-0.0000101
2678.8	-0.0000086
2676.8	-0.0000084
2674.9	-0.0000113
2673.0	-0.0000208
2671.1	-0.0000346
2669.1	-0.0000450
2667.2	-0.0000489
2665.3	-0.0000503
2663.3	-0.0000516
2661.4	-0.0000514
2659.5	-0.0000537
2657.6	-0.0000589
2655.6	-0.0000593
2653.7	-0.0000504
2651.8	-0.0000362
2649.8	-0.0000273
2647.9	-0.0000233
2646.0	-0.0000153
2644.1	-0.0000054
2642.1	-0.0000014
2640.2	-0.0000023
2638.3	-0.0000040
2636.3	-0.0000063
2634.4	-0.0000077
2632.5	-0.0000075
2630.6	-0.0000080
2628.6	-0.0000129
2626.7	-0.0000210
2624.8	-0.0000234
2622.8	-0.0000176
2620.9	-0.0000112
2619.0	-0.0000102
2617.1	-0.0000173
2615.1	-0.0000281
2613.2	-0.0000335
2611.3	-0.0000319
2609.3	-0.0000303
2607.4	-0.0000322
2605.5	-0.0000368
2603.6	-0.0000473
2601.6	-0.0000599
2599.7	-0.0000646
2597.8	-0.0000607
2595.8	-0.0000531
2593.9	-0.0000487
2592.0	-0.0000521
2590.1	-0.0000579
2588.1	-0.0000638
2586.2	-0.0000708
2584.3	-0.0000692
2582.3	-0.0000579
2580.4	-0.0000532
2578.5	-0.0000576
2576.6	-0.0000609
2574.6	-0.0000590
2572.7	-0.0000507
2570.8	-0.0000378
2568.8	-0.0000295
2566.9	-0.0000274
2565.0	-0.0000264
2563.1	-0.0000305
2561.1	-0.0000420
2559.2	-0.0000546
2557.3	-0.0000624
2555.3	-0.0000639
2553.4	-0.0000619
2551.5	-0.0000570
2549.6	-0.0000499
2547.6	-0.0000439
2545.7	-0.0000423
2543.8	-0.0000434
2541.8	-0.0000442
2539.9	-0.0000477
2538.0	-0.0000531
2536.1	-0.0000520
2534.1	-0.0000492
2532.2	-0.0000553
2530.3	-0.0000620
2528.3	-0.0000630
2526.4	-0.0000698
2524.5	-0.0000801
2522.6	-0.0000811
2520.6	-0.0000805
2518.7	-0.0000853
2516.8	-0.0000858
2514.8	-0.0000833
2512.9	-0.0000874
2511.0	-0.0000938
2509.1	-0.0000940
2507.1	-0.0000913
2505.2	-0.0000954
2503.3	-0.0001036
2501.3	-0.0001049
2499.4	-0.0001007
2497.5	-0.0000988
2495.6	-0.0001035
2493.6	-0.0001116
2491.7	-0.0001124
2489.8	-0.0001041
2487.8	-0.0000981
2485.9	-0.0000978
2484.0	-0.0000997
2482.1	-0.0001041
2480.1	-0.0001086
2478.2	-0.0001093
2476.3	-0.0001071
2474.3	-0.0001075
2472.4	-0.0001064
2470.5	-0.0000963
2468.6	-0.0000886
2466.6	-0.0000938
2464.7	-0.0001041
2462.8	-0.0001105
2460.8	-0.0001093
2458.9	-0.0001023
2457.0	-0.0000935
2455.1	-0.0000849
2453.1	-0.0000812
2451.2	-0.0000856
2449.3	-0.0000974
2447.3	-0.0001070
2445.4	-0.0001027
2443.5	-0.0000938
2441.6	-0.0000966
2439.6	-0.0001048
2437.7	-0.0001064
2435.8	-0.0001048
2433.8	-0.0001048
2431.9	-0.0001012
2430.0	-0.0000932
2428.1	-0.0000886
2426.1	-0.0000900
2424.2	-0.0000931
2422.3	-0.0000920
2420.3	-0.0000875
2418.4	-0.0000889
2416.5	-0.0000969
2414.6	-0.0001009
2412.6	-0.0000967
2410.7	-0.0000906
2408.8	-0.0000888
2406.8	-0.0000950
2404.9	-0.0001089
2403.0	-0.0001215
2401.1	-0.0001234
2399.1	-0.0001144
2397.2	-0.0001028
2395.3	-0.0000951
2393.3	-0.0000900
2391.4	-0.0000875
2389.5	-0.0000885
2387.6	-0.0000933
2385.6	-0.0001022
2383.7	-0.0001067
2381.8	-0.0001023
2379.8	-0.0000966
2377.9	-0.0000908
2376.0	-0.0000862
2374.1	-0.0000884
2372.1	-0.0000934
2370.2	-0.0000953
2368.3	-0.0001006
2366.3	-0.0001122
2364.4	-0.0001183
2362.5	-0.0001138
2360.6	-0.0001086
2358.6	-0.0001091
2356.7	-0.0001097
2354.8	-0.0001054
2352.8	-0.0000983
2350.9	-0.0000947
2349.0	-0.0000955
2347.1	-0.0000920
2345.1	-0.0000745
2343.2	-0.0000488
2341.3	-0.0000279
2339.3	-0.0000157
2337.4	-0.0000116
2335.5	-0.0000191
2333.6	-0.0000396
2331.6	-0.0000647
2329.7	-0.0000822
2327.8	-0.0000885
2325.8	-0.0000862
2323.9	-0.0000743
2322.0	-0.0000632
2320.1	-0.0000652
2318.1	-0.0000713
2316.2	-0.0000713
2314.3	-0.0000694
2312.3	-0.0000675
2310.4	-0.0000652
2308.5	-0.0000626
2306.6	-0.0000588
2304.6	-0.0000548
2302.7	-0.0000499
2300.8	-0.0000431
2298.8	-0.0000395
2296.9	-0.0000414
2295.0	-0.0000443
2293.1	-0.0000513
2291.1	-0.0000637
2289.2	-0.0000692
2287.3	-0.0000635
2285.3	-0.0000583
2283.4	-0.0000564
2281.5	-0.0000519
2279.6	-0.0000472
2277.6	-0.0000453
2275.7	-0.0000416
2273.8	-0.0000355
2271.8	-0.0000292
2269.9	-0.0000231
2268.0	-0.0000184
2266.1	-0.0000158
2264.1	-0.0000163
2262.2	-0.0000188
2260.3	-0.0000214
2258.3	-0.0000268
2256.4	-0.0000325
2254.5	-0.0000360
2252.6	-0.0000381
2250.6	-0.0000388
2248.7	-0.0000415
2246.8	-0.0000458
2244.8	-0.0000484
2242.9	-0.0000526
2241.0	-0.0000590
2239.1	-0.0000639
2237.1	-0.0000659
2235.2	-0.0000672
2233.3	-0.0000693
2231.3	-0.0000686
2229.4	-0.0000649
2227.5	-0.0000613
2225.6	-0.0000557
2223.6	-0.0000488
2221.7	-0.0000474
2219.8	-0.0000521
2217.8	-0.0000545
2215.9	-0.0000481
2214.0	-0.0000406
2212.1	-0.0000399
2210.1	-0.0000396
2208.2	-0.0000372
2206.3	-0.0000380
2204.3	-0.0000441
2202.4	-0.0000524
2200.5	-0.0000585
2198.6	-0.0000578
2196.6	-0.0000492
2194.7	-0.0000379
2192.8	-0.0000297
2190.8	-0.0000258
2188.9	-0.0000290
2187.0	-0.0000376
2185.1	-0.0000406
2183.1	-0.0000339
2181.2	-0.0000272
2179.3	-0.0000282
2177.3	-0.0000308
2175.4	-0.0000270
2173.5	-0.0000218
2171.6	-0.0000246
2169.6	-0.0000306
2167.7	-0.0000314
2165.8	-0.0000305
2163.8	-0.0000335
2161.9	-0.0000371
2160.0	-0.0000362
2158.1	-0.0000338
2156.1	-0.0000349
2154.2	-0.0000357
2152.3	-0.0000318
2150.3	-0.0000287
2148.4	-0.0000295
2146.5	-0.0000319
2144.6	-0.0000365
2142.6	-0.0000367
2140.7	-0.0000290
2138.8	-0.0000220
2136.8	-0.0000177
2134.9	-0.0000124
2133.0	-0.0000056
2131.1	-0.0000006
2129.1	-0.0000024
2127.2	-0.0000100
2125.3	-0.0000185
2123.3	-0.0000242
2121.4	-0.0000244
2119.5	-0.0000225
2117.6	-0.0000238
2115.6	-0.0000264
2113.7	-0.0000252
2111.8	-0.0000205
2109.8	-0.0000181
2107.9	-0.0000181
2106.0	-0.0000171
2104.1	-0.0000180
2102.1	-0.0000230
2100.2	-0.0000259
2098.3	-0.0000242
2096.3	-0.0000237
2094.4	-0.0000297
2092.5	-0.0000418
2090.6	-0.0000596
2088.6	-0.0000934
2086.7	-0.0001578
2084.8	-0.0002466
2082.8	-0.0003282
2080.9	-0.0003761
2079.0	-0.0003869
2077.1	-0.0003739
2075.1	-0.0003540
2073.2	-0.0003313
2071.3	-0.0002999
2069.3	-0.0002685
2067.4	-0.0002511
2065.5	-0.0002398
2063.6	-0.0002212
2061.6	-0.0001947
2059.7	-0.0001660
2057.8	-0.0001405
2055.8	-0.0001219
2053.9	-0.0001088
2052.0	-0.0000994
2050.1	-0.0000884
2048.1	-0.0000670
2046.2	-0.0000395
2044.3	-0.0000114
2042.3	0.0000197
2040.4	0.0000462
2038.5	0.0000640
2036.6	0.0000826
2034.6	0.0001027
2032.7	0.0001140
2030.8	0.0001174
2028.8	0.0001223
2026.9	0.0001275
2025.0	0.0001293
2023.1	0.0001309
2021.1	0.0001295
2019.2	0.0001190
2017.3	0.0001045
2015.3	0.0000901
2013.4	0.0000711
2011.5	0.0000516
2009.6	0.0000411
2007.6	0.0000373
2005.7	0.0000347
2003.8	0.0000353
2001.8	0.0000368
1999.9	0.0000297
1998.0	0.0000186
1996.1	0.0000160
1994.1	0.0000180
1992.2	0.0000173
1990.3	0.0000140
1988.3	0.0000085
1986.4	0.0000033
1984.5	0.0000035
1982.6	0.0000075
1980.6	0.0000079
1978.7	0.0000037
1976.8	-0.0000011
1974.8	-0.0000041
1972.9	-0.0000037
1971.0	-0.0000009
1969.1	-0.0000007
1967.1	-0.0000096
1965.2	-0.0000228
1963.3	-0.0000264
1961.4	-0.0000209
1959.4	-0.0000173
1957.5	-0.0000189
1955.6	-0.0000218
1953.6	-0.0000179
1951.7	-0.0000092
1949.8	-0.0000091
1947.9	-0.0000189
1945.9	-0.0000234
1944.0	-0.0000159
1942.1	-0.0000088
1940.1	-0.0000085
1938.2	-0.0000095
1936.3	-0.0000110
1934.4	-0.0000112
1932.4	-0.0000062
1930.5	-0.0000005
1928.6	-0.0000031
1926.6	-0.0000135
1924.7	-0.0000209
1922.8	-0.0000188
1920.9	-0.0000079
1918.9	0.0000039
1917.0	0.0000073
1915.1	0.0000042
1913.1	0.0000037
1911.2	0.0000076
1909.3	0.0000107
1907.4	0.0000087
1905.4	0.0000040
1903.5	0.0000000
1901.6	-0.0000042
1899.6	-0.0000108
1897.7	-0.0000141
1895.8	-0.0000100
1893.9	-0.0000039
1891.9	0.0000005
1890.0	0.0000039
1888.1	0.0000061
1886.1	0.0000056
1884.2	0.0000032
1882.3	0.0000035
1880.4	0.0000076
1878.4	0.0000139
1876.5	0.0000222
1874.6	0.0000274
1872.6	0.0000284
1870.7	0.0000317
1868.8	0.0000346
1866.9	0.0000273
1864.9	0.0000112
1863.0	-0.0000069
1861.1	-0.0000258
1859.1	-0.0000388
1857.2	-0.0000373
1855.3	-0.0000280
1853.4	-0.0000231
1851.4	-0.0000202
1849.5	-0.0000132
1847.6	-0.0000009
1845.6	0.0000157
1843.7	0.0000193
1841.8	0.0000023
1839.9	-0.0000131
1837.9	-0.0000167
1836.0	-0.0000158
1834.1	-0.0000068
1832.1	0.0000152
1830.2	0.0000355
1828.3	0.0000396
1826.4	0.0000335
1824.4	0.0000270
1822.5	0.0000255
1820.6	0.0000279
1818.6	0.0000294
1816.7	0.0000318
1814.8	0.0000365
1812.9	0.0000411
1810.9	0.0000456
1809.0	0.0000524
1807.1	0.0000631
1805.1	0.0000758
1803.2	0.0000888
1801.3	0.0000985
1799.4	0.0001007
1797.4	0.0000972
1795.5	0.0001034
1793.6	0.0001225
1791.6	0.0001274
1789.7	0.0001094
1787.8	0.0000993
1785.9	0.0001100
1783.9	0.0001217
1782.0	0.0001227
1780.1	0.0001184
1778.1	0.0001189
1776.2	0.0001393
1774.3	0.0001815
1772.4	0.0002104
1770.4	0.0002008
1768.5	0.0001764
1766.6	0.0001599
1764.6	0.0001598
1762.7	0.0001725
1760.8	0.0001785
1758.9	0.0001798
1756.9	0.0001803
1755.0	0.0001740
1753.1	0.0001748
1751.1	0.0001769
1749.2	0.0001602
1747.3	0.0001386
1745.4	0.0001265
1743.4	0.0001218
1741.5	0.0001290
1739.6	0.0001419
1737.6	0.0001733
1735.7	0.0002493
1733.8	0.0003184
1731.9	0.0003312
1729.9	0.0003344
1728.0	0.0003660
1726.1	0.0004235
1724.1	0.0005014
1722.2	0.0005969
1720.3	0.0007227
1718.4	0.0008625
1716.4	0.0009571
1714.5	0.0009924
1712.6	0.0010093
1710.6	0.0010328
1708.7	0.0010660
1706.8	0.0010974
1704.9	0.0011117
1702.9	0.0011311
1701.0	0.0011527
1699.1	0.0011250
1697.1	0.0010546
1695.2	0.0009592
1693.3	0.0008401
1691.4	0.0007408
1689.4	0.0006835
1687.5	0.0006793
1685.6	0.0007116
1683.6	0.0006870
1681.7	0.0005925
1679.8	0.0005214
1677.9	0.0005173
1675.9	0.0005406
1674.0	0.0005409
1672.1	0.0005272
1670.1	0.0005188
1668.2	0.0004958
1666.3	0.0004684
1664.4	0.0004682
1662.4	0.0004721
1660.5	0.0004550
1658.6	0.0004470
1656.6	0.0005039
1654.7	0.0006209
1652.8	0.0006662
1650.9	0.0005852
1648.9	0.0005168
1647.0	0.0005155
1645.1	0.0005012
1643.1	0.0004605
1641.2	0.0004341
1639.3	0.0004426
1637.4	0.0004862
1635.4	0.0005129
1633.5	0.0004818
1631.6	0.0004483
1629.6	0.0004618
1627.7	0.0005093
1625.8	0.0005933
1623.9	0.0007260
1621.9	0.0008856
1620.0	0.0010477
1618.1	0.0011710
1616.1	0.0011827
1614.2	0.0010970
1612.3	0.0010142
1610.4	0.0009752
1608.4	0.0009641
1606.5	0.0010062
1604.6	0.0011797
1602.6	0.0014994
1600.7	0.0018162
1598.8	0.0019169
1596.9	0.0017240
1594.9	0.0013534
1593.0	0.0009870
1591.1	0.0007331
1589.1	0.0005901
1587.2	0.0005011
1585.3	0.0004288
1583.4	0.0003696
1581.4	0.0003275
1579.5	0.0003212
1577.6	0.0003515
1575.6	0.0003513
1573.7	0.0003031
1571.8	0.0002829
1569.9	0.0002890
1567.9	0.0002660
1566.0	0.0002352
1564.1	0.0002385
1562.1	0.0002985
1560.2	0.0003863
1558.3	0.0004026
1556.4	0.0003393
1554.4	0.0002789
1552.5	0.0002442
1550.6	0.0002277
1548.6	0.0002292
1546.7	0.0002535
1544.8	0.0003123
1542.9	0.0004075
1540.9	0.0005061
1539.0	0.0005395
1537.1	0.0005272
1535.1	0.0005702
1533.2	0.0006788
1531.3	0.0008082
1529.4	0.0009573
1527.4	0.0011274
1525.5	0.0013275
1523.6	0.0015900
1521.6	0.0018838
1519.7	0.0021367
1517.8	0.0023664
1515.9	0.0027440
1513.9	0.0037159
1512.0	0.0056829
1510.1	0.0079147
1508.1	0.0087471
1506.2	0.0075747
1504.3	0.0054083
1502.4	0.0033779
1500.4	0.0019403
1498.5	0.0011279
1496.6	0.0007285
1494.6	0.0004962
1492.7	0.0003480
1490.8	0.0002767
1488.9	0.0002439
1486.9	0.0002266
1485.0	0.0002368
1483.1	0.0002894
1481.1	0.0003954
1479.2	0.0005770
1477.3	0.0008677
1475.4	0.0012612
1473.4	0.0016432
1471.5	0.0018365
1469.6	0.0017937
1467.6	0.0016407
1465.7	0.0014976
1463.8	0.0014017
1461.9	0.0013794
1459.9	0.0014428
1458.0	0.0015147
1456.1	0.0014909
1454.1	0.0013847
1452.2	0.0012874
1450.3	0.0012538
1448.4	0.0013054
1446.4	0.0014159
1444.5	0.0014874
1442.6	0.0014350
1440.6	0.0012663
1438.7	0.0010518
1436.8	0.0008310
1434.9	0.0006233
1432.9	0.0004802
1431.0	0.0004145
1429.1	0.0003823
1427.1	0.0003645
1425.2	0.0003676
1423.3	0.0003918
1421.4	0.0004372
1419.4	0.0004761
1417.5	0.0004723
1415.6	0.0004454
1413.6	0.0004298
1411.7	0.0004256
1409.8	0.0004246
1407.9	0.0004301
1405.9	0.0004483
1404.0	0.0004673
1402.1	0.0004775
1400.1	0.0004834
1398.2	0.0004865
1396.3	0.0004913
1394.4	0.0004990
1392.4	0.0005020
1390.5	0.0005066
1388.6	0.0005230
1386.6	0.0005475
1384.7	0.0005816
1382.8	0.0006305
1380.9	0.0006932
1378.9	0.0007715
1377.0	0.0008595
1375.1	0.0009420
1373.1	0.0010097
1371.2	0.0010659
1369.3	0.0011125
1367.4	0.0011463
1365.4	0.0011753
1363.5	0.0011964
1361.6	0.0011831
1359.6	0.0011166
1357.7	0.0010091
1355.8	0.0008842
1353.9	0.0007528
1351.9	0.0006245
1350.0	0.0005145
1348.1	0.0004320
1346.1	0.0003758
1344.2	0.0003365
1342.3	0.0003044
1340.4	0.0002766
1338.4	0.0002518
1336.5	0.0002235
1334.6	0.0001930
1332.6	0.0001729
1330.7	0.0001686
1328.8	0.0001730
1326.9	0.0001810
1324.9	0.0001998
1323.0	0.0002361
1321.1	0.0002924
1319.1	0.0003694
1317.2	0.0004640
1315.3	0.0005807
1313.4	0.0007344
1311.4	0.0009290
1309.5	0.0011316
1307.6	0.0012774
1305.6	0.0013104
1303.7	0.0012232
1301.8	0.0010656
1299.9	0.0009170
1297.9	0.0008342
1296.0	0.0008208
1294.1	0.0008509
1292.1	0.0009006
1290.2	0.0009596
1288.3	0.0010345
1286.4	0.0011390
1284.4	0.0012876
1282.5	0.0015048
1280.6	0.0018259
1278.6	0.0023271
1276.7	0.0031579
1274.8	0.0044310
1272.9	0.0059752
1270.9	0.0072627
1269.0	0.0077771
1267.1	0.0074467
1265.1	0.0065789
1263.2	0.0055049
1261.3	0.0044189
1259.4	0.0034214
1257.4	0.0025975
1255.5	0.0020299
1253.6	0.0017349
1251.6	0.0016410
1249.7	0.0016591
1247.8	0.0017267
1245.9	0.0018055
1243.9	0.0018840
1242.0	0.0019815
1240.1	0.0021129
1238.1	0.0022514
1236.2	0.0023591
1234.3	0.0024217
1232.4	0.0024354
1230.4	0.0023965
1228.5	0.0023143
1226.6	0.0022191
1224.6	0.0021329
1222.7	0.0020481
1220.8	0.0019562
1218.9	0.0018659
1216.9	0.0017892
1215.0	0.0017245
1213.1	0.0016586
1211.1	0.0015873
1209.2	0.0015094
1207.3	0.0014189
1205.4	0.0013152
1203.4	0.0012021
1201.5	0.0010800
1199.6	0.0009511
1197.6	0.0008286
1195.7	0.0007219
1193.8	0.0006229
1191.9	0.0005346
1189.9	0.0004777
1188.0	0.0004609
1186.1	0.0004799
1184.1	0.0005340
1182.2	0.0006119
1180.3	0.0006839
1178.4	0.0007229
1176.4	0.0007177
1174.5	0.0006707
1172.6	0.0005890
1170.6	0.0004800
1168.7	0.0003693
1166.8	0.0002850
1164.9	0.0002335
1162.9	0.0002144
1161.0	0.0002274
1159.1	0.0002634
1157.1	0.0002974
1155.2	0.0003024
1153.3	0.0002718
1151.4	0.0002137
1149.4	0.0001460
1147.5	0.0000914
1145.6	0.0000585
1143.6	0.0000419
1141.7	0.0000324
1139.8	0.0000246
1137.9	0.0000205
1135.9	0.0000227
1134.0	0.0000292
1132.1	0.0000389
1130.1	0.0000586
1128.2	0.0000829
1126.3	0.0000978
1124.4	0.0001238
1122.4	0.0002092
1120.5	0.0004066
1118.6	0.0007802
1116.6	0.0013288
1114.7	0.0018733
1112.8	0.0021271
1110.9	0.0019361
1108.9	0.0014161
1107.0	0.0008420
1105.1	0.0004248
1103.1	0.0001948
1101.2	0.0000747
1099.3	0.0000124
1097.4	-0.0000077
1095.4	-0.0000119
1093.5	-0.0000170
1091.6	-0.0000203
1089.6	-0.0000248
1087.7	-0.0000336
1085.8	-0.0000410
1083.9	-0.0000410
1081.9	-0.0000334
1080.0	-0.0000287
1078.1	-0.0000362
1076.1	-0.0000500
1074.2	-0.0000578
1072.3	-0.0000584
1070.4	-0.0000581
1068.4	-0.0000549
1066.5	-0.0000436
1064.6	-0.0000249
1062.6	-0.0000085
1060.7	-0.0000027
1058.8	0.0000181
1056.9	0.0000877
1054.9	0.0002089
1053.0	0.0003852
1051.1	0.0006428
1049.1	0.0010036
1047.2	0.0014169
1045.3	0.0017250
1043.4	0.0017689
1041.4	0.0015331
1039.5	0.0011579
1037.6	0.0008443
1035.6	0.0007610
1033.7	0.0009849
1031.8	0.0014374
1029.9	0.0018781
1027.9	0.0020646
1026.0	0.0019390
1024.1	0.0016166
1022.1	0.0012529
1020.2	0.0009470
1018.3	0.0007173
1016.4	0.0005453
1014.4	0.0004167
1012.5	0.0003188
1010.6	0.0002420
1008.6	0.0001916
1006.7	0.0001669
1004.8	0.0001443
1002.9	0.0001159
1000.9	0.0000914
999.0	0.0000675
997.1	0.0000430
995.1	0.0000266
993.2	0.0000169
991.3	0.0000097
989.4	0.0000083
987.4	0.0000083
985.5	-0.0000031
983.6	-0.0000223
981.6	-0.0000274
979.7	-0.0000161
977.8	-0.0000103
975.9	-0.0000118
973.9	-0.0000020
972.0	0.0000210
970.1	0.0000385
968.1	0.0000375
966.2	0.0000300
964.3	0.0000326
962.4	0.0000426
960.4	0.0000509
958.5	0.0000568
956.6	0.0000593
954.6	0.0000526
952.7	0.0000400
950.8	0.0000280
948.9	0.0000107
946.9	-0.0000130
945.0	-0.0000305
943.1	-0.0000353
941.1	-0.0000367
939.2	-0.0000451
937.3	-0.0000557
935.4	-0.0000520
933.4	-0.0000364
931.5	-0.0000184
929.6	0.0000057
927.6	0.0000411
925.7	0.0000830
923.8	0.0001221
921.9	0.0001626
919.9	0.0002032
918.0	0.0002218
916.1	0.0002160
914.1	0.0001964
912.2	0.0001559
910.3	0.0001006
908.4	0.0000564
906.4	0.0000323
904.5	0.0000254
902.6	0.0000307
900.6	0.0000325
898.7	0.0000219
896.8	0.0000135
894.9	0.0000214
892.9	0.0000350
891.0	0.0000399
889.1	0.0000360
887.1	0.0000357
885.2	0.0000501
883.3	0.0000703
881.4	0.0000818
879.4	0.0000833
877.5	0.0000799
875.6	0.0000688
873.6	0.0000450
871.7	0.0000266
869.8	0.0000266
867.9	0.0000364
865.9	0.0000577
864.0	0.0000812
862.1	0.0000903
860.1	0.0001000
858.2	0.0001299
856.3	0.0001721
854.4	0.0002008
852.4	0.0001966
850.5	0.0001775
848.6	0.0001886
846.6	0.0002422
844.7	0.0003102
842.8	0.0003767
840.9	0.0004635
838.9	0.0005693
837.0	0.0006088
835.1	0.0005150
833.1	0.0003528
831.2	0.0002206
829.3	0.0001281
827.4	0.0000511
825.4	0.0000012
823.5	-0.0000140
821.6	-0.0000169
819.6	-0.0000224
817.7	-0.0000169
815.8	0.0000105
813.9	0.0000394
811.9	0.0000514
810.0	0.0000509
808.1	0.0000393
806.1	0.0000266
804.2	0.0000169
802.3	-0.0000072
800.4	-0.0000271
798.4	-0.0000145
796.5	0.0000224
794.6	0.0000607
792.6	0.0000667
790.7	0.0000366
788.8	-0.0000018
786.9	-0.0000249
784.9	-0.0000157
783.0	0.0000200
781.1	0.0000525
779.1	0.0000633
777.2	0.0000742
775.3	0.0001242
773.4	0.0002412
771.4	0.0004422
769.5	0.0007430
767.6	0.0011885
765.6	0.0018296
763.7	0.0025841
761.8	0.0031578
759.9	0.0032994
757.9	0.0030667
756.0	0.0027038
754.1	0.0024108
752.1	0.0022496
750.2	0.0021811
748.3	0.0021544
746.4	0.0021250
744.4	0.0020113
742.5	0.0016926
740.6	0.0011815
738.6	0.0006300
736.7	0.0001912
734.8	-0.0000748
732.9	-0.0002266
730.9	-0.0002708
729.0	-0.0002235
727.1	-0.0001662
725.1	-0.0000976
723.2	-0.0000133
721.3	0.0000479
719.4	0.0001094
717.4	0.0001841
715.5	0.0002205
713.6	0.0002287
711.6	0.0002609
709.7	0.0002881
707.8	0.0002689
705.9	0.0002382
703.9	0.0001602
702.0	-0.0000343
700.1	-0.0002002
698.1	-0.0002216
696.2	-0.0001536
694.3	-0.0000630
692.4	-0.0000139
690.4	0.0000449
688.5	0.0001325
686.6	0.0000768
684.6	-0.0002457
682.7	-0.0006431
680.8	-0.0007839
678.9	-0.0007647
676.9	-0.0007593
675.0	-0.0004505
673.1	0.0000711
671.1	0.0002320
669.2	-0.0000490
667.3	-0.0004265
665.4	-0.0005906
663.4	-0.0005946
661.5	-0.0004836
659.6	-0.0000396
657.6	0.0003776
655.7	0.0002998
653.8	0.0000339
651.9	-0.0000875
649.9	-0.0000426
