3997.9	-0.0000092
3996.0	0.0000025
3994.1	0.0000117
3992.1	0.0000121
3990.2	0.0000156
3988.3	0.0000248
3986.3	0.0000262
3984.4	0.0000095
3982.5	-0.0000080
3980.6	-0.0000023
3978.6	0.0000151
3976.7	0.0000189
3974.8	0.0000087
3972.8	0.0000001
3970.9	0.0000046
3969.0	0.0000139
3967.1	0.0000088
3965.1	-0.0000052
3963.2	-0.0000093
3961.3	-0.0000050
3959.3	-0.0000026
3957.4	-0.0000067
3955.5	-0.0000086
3953.6	-0.0000004
3951.6	0.0000101
3949.7	0.0000106
3947.8	-0.0000015
3945.8	-0.0000104
3943.9	-0.0000045
3942.0	0.0000005
3940.1	-0.0000071
3938.1	-0.0000187
3936.2	-0.0000275
3934.3	-0.0000240
3932.3	-0.0000085
3930.4	-0.0000052
3928.5	-0.0000184
3926.6	-0.0000238
3924.6	-0.0000097
3922.7	0.0000099
3920.8	0.0000163
3918.8	0.0000086
3916.9	0.0000015
3915.0	0.0000055
3913.1	0.0000122
3911.1	0.0000043
3909.2	-0.0000082
3907.3	-0.0000010
3905.3	0.0000152
3903.4	0.0000150
3901.5	0.0000051
3899.6	0.0000029
3897.6	0.0000021
3895.7	0.0000001
3893.8	0.0000055
3891.8	0.0000150
3889.9	0.0000217
3888.0	0.0000182
3886.1	0.0000026
3884.1	-0.0000051
3882.2	0.0000133
3880.3	0.0000380
3878.3	0.0000431
3876.4	0.0000405
3874.5	0.0000476
3872.6	0.0000621
3870.6	0.0000747
3868.7	0.0000775
3866.8	0.0000795
3864.8	0.0000852
3862.9	0.0000815
3861.0	0.0000627
3859.1	0.0000490
3857.1	0.0000944
3855.2	0.0002071
3853.3	0.0002718
3851.3	0.0002011
3849.4	0.0000855
3847.5	0.0000322
3845.6	0.0000245
3843.6	0.0000216
3841.7	0.0000229
3839.8	0.0000307
3837.8	0.0000474
3835.9	0.0000660
3834.0	0.0000676
3832.1	0.0000549
3830.1	0.0000439
3828.2	0.0000372
3826.3	0.0000252
3824.3	0.0000120
3822.4	0.0000206
3820.5	0.0000369
3818.6	0.0000277
3816.6	0.0000095
3814.7	0.0000044
3812.8	0.0000038
3810.8	0.0000081
3808.9	0.0000304
3807.0	0.0000588
3805.1	0.0000665
3803.1	0.0000598
3801.2	0.0000529
3799.3	0.0000435
3797.3	0.0000366
3795.4	0.0000255
3793.5	0.0000074
3791.6	0.0000016
3789.6	0.0000073
3787.7	0.0000121
3785.8	0.0000167
3783.8	0.0000205
3781.9	0.0000265
3780.0	0.0000354
3778.1	0.0000329
3776.1	0.0000176
3774.2	0.0000065
3772.3	0.0000051
3770.3	0.0000110
3768.4	0.0000243
3766.5	0.0000402
3764.6	0.0000448
3762.6	0.0000454
3760.7	0.0000613
3758.8	0.0000720
3756.8	0.0000640
3754.9	0.0000581
3753.0	0.0000887
3751.1	0.0001642
3749.1	0.0002124
3747.2	0.0002249
3745.3	0.0002576
3743.3	0.0002409
3741.4	0.0001422
3739.5	0.0000637
3737.6	0.0000589
3735.6	0.0000861
3733.7	0.0000817
3731.8	0.0000476
3729.8	0.0000297
3727.9	0.0000391
3726.0	0.0000519
3724.1	0.0000427
3722.1	0.0000231
3720.2	0.0000210
3718.3	0.0000316
3716.3	0.0000488
3714.4	0.0000954
3712.5	0.0001382
3710.6	0.0001049
3708.6	0.0000311
3706.7	-0.0000058
3704.8	0.0000040
3702.8	0.0000301
3700.9	0.0000372
3699.0	0.0000260
3697.1	0.0000176
3695.1	0.0000192
3693.2	0.0000339
3691.3	0.0000536
3689.3	0.0000596
3687.4	0.0000470
3685.5	0.0000233
3683.6	0.0000048
3681.6	0.0000092
3679.7	0.0000317
3677.8	0.0000751
3675.8	0.0001331
3673.9	0.0001608
3672.0	0.0001512
3670.1	0.0001157
3668.1	0.0000654
3666.2	0.0000374
3664.3	0.0000339
3662.3	0.0000354
3660.4	0.0000486
3658.5	0.0000795
3656.6	0.0001021
3654.6	0.0001061
3652.7	0.0001236
3650.8	0.0001445
3648.8	0.0001249
3646.9	0.0000729
3645.0	0.0000315
3643.1	0.0000171
3641.1	0.0000109
3639.2	0.0000002
3637.3	-0.0000087
3635.3	-0.0000088
3633.4	0.0000177
3631.5	0.0000785
3629.6	0.0001181
3627.6	0.0000853
3625.7	0.0000279
3623.8	0.0000002
3621.8	-0.0000035
3619.9	0.0000060
3618.0	0.0000195
3616.1	0.0000273
3614.1	0.0000425
3612.2	0.0000686
3610.3	0.0000797
3608.3	0.0000587
3606.4	0.0000183
3604.5	-0.0000093
3602.6	-0.0000087
3600.6	0.0000024
3598.7	0.0000033
3596.8	-0.0000059
3594.8	-0.0000066
3592.9	-0.0000003
3591.0	-0.0000007
3589.1	0.0000049
3587.1	0.0000160
3585.2	0.0000105
3583.3	-0.0000023
3581.3	-0.0000076
3579.4	-0.0000110
3577.5	-0.0000099
3575.6	-0.0000042
3573.6	-0.0000041
3571.7	-0.0000001
3569.8	0.0000198
3567.8	0.0000401
3565.9	0.0000362
3564.0	0.0000186
3562.1	0.0000186
3560.1	0.0000304
3558.2	0.0000287
3556.3	0.0000151
3554.3	0.0000032
3552.4	-0.0000106
3550.5	-0.0000247
3548.6	-0.0000202
3546.6	-0.0000051
3544.7	-0.0000010
3542.8	0.0000007
3540.8	0.0000086
3538.9	0.0000105
3537.0	0.0000034
3535.1	-0.0000004
3533.1	0.0000017
3531.2	-0.0000007
3529.3	-0.0000074
3527.3	-0.0000110
3525.4	-0.0000129
3523.5	-0.0000137
3521.6	-0.0000161
3519.6	-0.0000224
3517.7	-0.0000187
3515.8	0.0000003
3513.8	0.0000196
3511.9	0.0000258
3510.0	0.0000200
3508.1	0.0000149
3506.1	0.0000152
3504.2	0.0000167
3502.3	0.0000157
3500.3	0.0000167
3498.4	0.0000236
3496.5	0.0000256
3494.6	0.0000213
3492.6	0.0000215
3490.7	0.0000189
3488.8	0.0000121
3486.8	0.0000173
3484.9	0.0000313
3483.0	0.0000352
3481.1	0.0000249
3479.1	0.0000148
3477.2	0.0000140
3475.3	0.0000131
3473.3	0.0000104
3471.4	0.0000150
3469.5	0.0000235
3467.6	0.0000336
3465.6	0.0000423
3463.7	0.0000374
3461.8	0.0000234
3459.8	0.0000141
3457.9	0.0000123
3456.0	0.0000185
3454.1	0.0000290
3452.1	0.0000366
3450.2	0.0000427
3448.3	0.0000533
3446.3	0.0000662
3444.4	0.0000765
3442.5	0.0000785
3440.6	0.0000711
3438.6	0.0000650
3436.7	0.0000630
3434.8	0.0000529
3432.8	0.0000379
3430.9	0.0000384
3429.0	0.0000555
3427.1	0.0000696
3425.1	0.0000693
3423.2	0.0000598
3421.3	0.0000527
3419.3	0.0000561
3417.4	0.0000649
3415.5	0.0000606
3413.6	0.0000426
3411.6	0.0000398
3409.7	0.0000570
3407.8	0.0000632
3405.8	0.0000499
3403.9	0.0000422
3402.0	0.0000482
3400.1	0.0000596
3398.1	0.0000808
3396.2	0.0001048
3394.3	0.0001083
3392.3	0.0000922
3390.4	0.0000781
3388.5	0.0000737
3386.6	0.0000721
3384.6	0.0000731
3382.7	0.0000782
3380.8	0.0000830
3378.8	0.0000829
3376.9	0.0000763
3375.0	0.0000735
3373.1	0.0000784
3371.1	0.0000791
3369.2	0.0000808
3367.3	0.0000906
3365.3	0.0000927
3363.4	0.0000820
3361.5	0.0000766
3359.6	0.0000798
3357.6	0.0000767
3355.7	0.0000645
3353.8	0.0000574
3351.8	0.0000617
3349.9	0.0000652
3348.0	0.0000607
3346.1	0.0000582
3344.1	0.0000636
3342.2	0.0000694
3340.3	0.0000686
3338.3	0.0000650
3336.4	0.0000668
3334.5	0.0000726
3332.6	0.0000738
3330.6	0.0000705
3328.7	0.0000709
3326.8	0.0000740
3324.8	0.0000657
3322.9	0.0000531
3321.0	0.0000546
3319.1	0.0000609
3317.1	0.0000697
3315.2	0.0000847
3313.3	0.0000874
3311.3	0.0000802
3309.4	0.0000838
3307.5	0.0000928
3305.6	0.0000909
3303.6	0.0000839
3301.7	0.0000911
3299.8	0.0001117
3297.8	0.0001234
3295.9	0.0001195
3294.0	0.0001120
3292.1	0.0001055
3290.1	0.0000978
3288.2	0.0000928
3286.3	0.0000953
3284.3	0.0001025
3282.4	0.0001091
3280.5	0.0001070
3278.6	0.0000996
3276.6	0.0001020
3274.7	0.0001133
3272.8	0.0001232
3270.8	0.0001282
3268.9	0.0001283
3267.0	0.0001245
3265.1	0.0001202
3263.1	0.0001160
3261.2	0.0001075
3259.3	0.0001028
3257.3	0.0001155
3255.4	0.0001309
3253.5	0.0001313
3251.6	0.0001219
3249.6	0.0001151
3247.7	0.0001206
3245.8	0.0001353
3243.8	0.0001463
3241.9	0.0001474
3240.0	0.0001390
3238.1	0.0001259
3236.1	0.0001161
3234.2	0.0001154
3232.3	0.0001246
3230.3	0.0001315
3228.4	0.0001275
3226.5	0.0001223
3224.6	0.0001203
3222.6	0.0001181
3220.7	0.0001153
3218.8	0.0001142
3216.8	0.0001193
3214.9	0.0001276
3213.0	0.0001279
3211.1	0.0001226
3209.1	0.0001204
3207.2	0.0001196
3205.3	0.0001199
3203.3	0.0001177
3201.4	0.0001006
3199.5	0.0000834
3197.6	0.0000906
3195.6	0.0001073
3193.7	0.0001080
3191.8	0.0001010
3189.8	0.0001030
3187.9	0.0001144
3186.0	0.0001240
3184.1	0.0001212
3182.1	0.0001095
3180.2	0.0001025
3178.3	0.0001027
3176.3	0.0001069
3174.4	0.0001140
3172.5	0.0001194
3170.6	0.0001189
3168.6	0.0001126
3166.7	0.0001070
3164.8	0.0001035
3162.8	0.0000964
3160.9	0.0000876
3159.0	0.0000829
3157.1	0.0000874
3155.1	0.0001015
3153.2	0.0001105
3151.3	0.0001052
3149.3	0.0000971
3147.4	0.0000973
3145.5	0.0001034
3143.6	0.0000987
3141.6	0.0000781
3139.7	0.0000645
3137.8	0.0000693
3135.8	0.0000784
3133.9	0.0000840
3132.0	0.0000838
3130.1	0.0000728
3128.1	0.0000598
3126.2	0.0000563
3124.3	0.0000558
3122.3	0.0000533
3120.4	0.0000537
3118.5	0.0000595
3116.6	0.0000670
3114.6	0.0000694
3112.7	0.0000665
3110.8	0.0000623
3108.8	0.0000538
3106.9	0.0000396
3105.0	0.0000275
3103.1	0.0000249
3101.1	0.0000333
3099.2	0.0000441
3097.3	0.0000424
3095.3	0.0000363
3093.4	0.0000459
3091.5	0.0000645
3089.6	0.0000733
3087.6	0.0000694
3085.7	0.0000648
3083.8	0.0000630
3081.8	0.0000556
3079.9	0.0000472
3078.0	0.0000462
3076.1	0.0000488
3074.1	0.0000492
3072.2	0.0000448
3070.3	0.0000399
3068.3	0.0000478
3066.4	0.0000666
3064.5	0.0000773
3062.6	0.0000694
3060.6	0.0000490
3058.7	0.0000345
3056.8	0.0000376
3054.8	0.0000472
3052.9	0.0000497
3051.0	0.0000427
3049.1	0.0000325
3047.1	0.0000310
3045.2	0.0000343
3043.3	0.0000322
3041.3	0.0000292
3039.4	0.0000253
3037.5	0.0000190
3035.6	0.0000221
3033.6	0.0000310
3031.7	0.0000342
3029.8	0.0000341
3027.8	0.0000305
3025.9	0.0000255
3024.0	0.0000261
3022.1	0.0000226
3020.1	0.0000040
3018.2	-0.0000124
3016.3	-0.0000072
3014.3	0.0000081
3012.4	0.0000157
3010.5	0.0000171
3008.6	0.0000172
3006.6	0.0000188
3004.7	0.0000219
3002.8	0.0000250
3000.8	0.0000311
2998.9	0.0000377
2997.0	0.0000419
2995.1	0.0000449
2993.1	0.0000444
2991.2	0.0000450
2989.3	0.0000491
2987.3	0.0000485
2985.4	0.0000431
2983.5	0.0000416
2981.6	0.0000478
2979.6	0.0000557
2977.7	0.0000580
2975.8	0.0000599
2973.8	0.0000681
2971.9	0.0000781
2970.0	0.0000865
2968.1	0.0000973
2966.1	0.0001066
2964.2	0.0001103
2962.3	0.0001185
2960.3	0.0001376
2958.4	0.0001609
2956.5	0.0001809
2954.6	0.0001924
2952.6	0.0001920
2950.7	0.0001811
2948.8	0.0001632
2946.8	0.0001452
2944.9	0.0001351
2943.0	0.0001357
2941.1	0.0001444
2939.1	0.0001488
2937.2	0.0001396
2935.3	0.0001270
2933.3	0.0001195
2931.4	0.0001137
2929.5	0.0001067
2927.6	0.0000953
2925.6	0.0000815
2923.7	0.0000741
2921.8	0.0000770
2919.8	0.0000834
2917.9	0.0000827
2916.0	0.0000818
2914.1	0.0000913
2912.1	0.0001039
2910.2	0.0001114
2908.3	0.0001094
2906.3	0.0000960
2904.4	0.0000826
2902.5	0.0000802
2900.6	0.0000795
2898.6	0.0000672
2896.7	0.0000489
2894.8	0.0000396
2892.8	0.0000402
2890.9	0.0000415
2889.0	0.0000391
2887.1	0.0000354
2885.1	0.0000301
2883.2	0.0000215
2881.3	0.0000131
2879.3	0.0000090
2877.4	0.0000071
2875.5	0.0000089
2873.6	0.0000153
2871.6	0.0000189
2869.7	0.0000187
2867.8	0.0000203
2865.8	0.0000211
2863.9	0.0000203
2862.0	0.0000222
2860.1	0.0000263
2858.1	0.0000287
2856.2	0.0000262
2854.3	0.0000251
2852.3	0.0000371
2850.4	0.0000587
2848.5	0.0000751
2846.6	0.0000813
2844.6	0.0000819
2842.7	0.0000827
2840.8	0.0000791
2838.8	0.0000651
2836.9	0.0000496
2835.0	0.0000409
2833.1	0.0000349
2831.1	0.0000295
2829.2	0.0000281
2827.3	0.0000261
2825.3	0.0000173
2823.4	0.0000091
2821.5	0.0000080
2819.6	0.0000116
2817.6	0.0000157
2815.7	0.0000163
2813.8	0.0000127
2811.8	0.0000075
2809.9	0.0000015
2808.0	-0.0000034
2806.1	-0.0000032
2804.1	-0.0000005
2802.2	0.0000024
2800.3	0.0000080
2798.3	0.0000123
2796.4	0.0000130
2794.5	0.0000118
2792.6	0.0000110
2790.6	0.0000135
2788.7	0.0000158
2786.8	0.0000118
2784.8	0.0000033
2782.9	-0.0000031
2781.0	-0.0000030
2779.1	-0.0000009
2777.1	-0.0000021
2775.2	-0.0000009
2773.3	0.0000021
2771.3	0.0000008
2769.4	-0.0000015
2767.5	-0.0000022
2765.6	-0.0000008
2763.6	0.0000056
2761.7	0.0000112
2759.8	0.0000092
2757.8	0.0000030
2755.9	0.0000002
2754.0	0.0000021
2752.1	0.0000045
2750.1	0.0000062
2748.2	0.0000114
2746.3	0.0000162
2744.3	0.0000121
2742.4	0.0000040
2740.5	-0.0000017
2738.6	-0.0000071
2736.6	-0.0000088
2734.7	-0.0000042
2732.8	-0.0000000
2730.8	0.0000022
2728.9	0.0000054
2727.0	0.0000039
2725.1	-0.0000043
2723.1	-0.0000080
2721.2	-0.0000037
2719.3	-0.0000015
2717.3	-0.0000040
2715.4	-0.0000087
2713.5	-0.0000142
2711.6	-0.0000150
2709.6	-0.0000097
2707.7	-0.0000027
2705.8	0.0000037
2703.8	0.0000071
2701.9	0.0000045
2700.0	0.0000000
2698.1	0.0000010
2696.1	0.0000047
2694.2	0.0000054
2692.3	0.0000033
2690.3	-0.0000022
2688.4	-0.0000087
2686.5	-0.0000138
2684.6	-0.0000146
2682.6	-0.0000067
2680.7	0.0000049
2678.8	0.0000090
2676.8	0.0000014
2674.9	-0.0000064
2673.0	-0.0000050
2671.1	-0.0000001
2669.1	0.0000050
2667.2	0.0000058
2665.3	-0.0000000
2663.3	-0.0000039
2661.4	-0.0000039
2659.5	-0.0000033
2657.6	-0.0000002
2655.6	0.0000053
2653.7	0.0000083
2651.8	0.0000071
2649.8	0.0000048
2647.9	0.0000033
2646.0	0.0000034
2644.1	0.0000051
2642.1	0.0000051
2640.2	0.0000006
2638.3	-0.0000028
2636.3	-0.0000021
2634.4	-0.0000014
2632.5	-0.0000017
2630.6	-0.0000015
2628.6	0.0000007
2626.7	0.0000022
2624.8	-0.0000012
2622.8	-0.0000054
2620.9	-0.0000062
2619.0	-0.0000065
2617.1	-0.0000056
2615.1	-0.0000029
2613.2	-0.0000008
2611.3	0.0000007
2609.3	0.0000044
2607.4	0.0000079
2605.5	0.0000063
2603.6	0.0000010
2601.6	-0.0000061
2599.7	-0.0000145
2597.8	-0.0000158
2595.8	-0.0000079
2593.9	0.0000001
2592.0	0.0000056
2590.1	0.0000087
2588.1	0.0000095
2586.2	0.0000128
2584.3	0.0000182
2582.3	0.0000204
2580.4	0.0000157
2578.5	0.0000051
2576.6	-0.0000025
2574.6	0.0000002
2572.7	0.0000083
2570.8	0.0000134
2568.8	0.0000150
2566.9	0.0000163
2565.0	0.0000129
2563.1	0.0000035
2561.1	-0.0000001
2559.2	0.0000072
2557.3	0.0000137
2555.3	0.0000110
2553.4	0.0000063
2551.5	0.0000020
2549.6	-0.0000025
2547.6	-0.0000012
2545.7	0.0000046
2543.8	0.0000114
2541.8	0.0000202
2539.9	0.0000284
2538.0	0.0000313
2536.1	0.0000267
2534.1	0.0000171
2532.2	0.0000096
2530.3	0.0000110
2528.3	0.0000194
2526.4	0.0000242
2524.5	0.0000192
2522.6	0.0000081
2520.6	0.0000014
2518.7	-0.0000004
2516.8	-0.0000041
2514.8	-0.0000083
2512.9	-0.0000074
2511.0	-0.0000042
2509.1	-0.0000002
2507.1	0.0000051
2505.2	0.0000091
2503.3	0.0000139
2501.3	0.0000207
2499.4	0.0000243
2497.5	0.0000219
2495.6	0.0000191
2493.6	0.0000209
2491.7	0.0000209
2489.8	0.0000158
2487.8	0.0000132
2485.9	0.0000137
2484.0	0.0000138
2482.1	0.0000148
2480.1	0.0000152
2478.2	0.0000119
2476.3	0.0000067
2474.3	0.0000046
2472.4	0.0000063
2470.5	0.0000090
2468.6	0.0000134
2466.6	0.0000176
2464.7	0.0000166
2462.8	0.0000126
2460.8	0.0000082
2458.9	0.0000048
2457.0	0.0000065
2455.1	0.0000098
2453.1	0.0000079
2451.2	0.0000049
2449.3	0.0000053
2447.3	0.0000062
2445.4	0.0000038
2443.5	-0.0000029
2441.6	-0.0000073
2439.6	-0.0000030
2437.7	0.0000043
2435.8	0.0000074
2433.8	0.0000127
2431.9	0.0000212
2430.0	0.0000198
2428.1	0.0000082
2426.1	0.0000029
2424.2	0.0000053
2422.3	0.0000073
2420.3	0.0000104
2418.4	0.0000133
2416.5	0.0000090
2414.6	0.0000004
2412.6	-0.0000031
2410.7	0.0000030
2408.8	0.0000088
2406.8	0.0000027
2404.9	-0.0000061
2403.0	-0.0000067
2401.1	-0.0000046
2399.1	-0.0000005
2397.2	0.0000063
2395.3	0.0000086
2393.3	0.0000082
2391.4	0.0000067
2389.5	0.0000005
2387.6	-0.0000017
2385.6	0.0000057
2383.7	0.0000126
2381.8	0.0000118
2379.8	0.0000060
2377.9	0.0000025
2376.0	0.0000064
2374.1	0.0000149
2372.1	0.0000155
2370.2	0.0000043
2368.3	-0.0000030
2366.3	0.0000015
2364.4	0.0000073
2362.5	0.0000055
2360.6	0.0000017
2358.6	0.0000028
2356.7	0.0000062
2354.8	0.0000072
2352.8	0.0000042
2350.9	-0.0000029
2349.0	-0.0000114
2347.1	-0.0000137
2345.1	-0.0000069
2343.2	0.0000006
2341.3	0.0000081
2339.3	0.0000219
2337.4	0.0000307
2335.5	0.0000224
2333.6	0.0000083
2331.6	0.0000062
2329.7	0.0000149
2327.8	0.0000180
2325.8	0.0000074
2323.9	-0.0000070
2322.0	-0.0000162
2320.1	-0.0000192
2318.1	-0.0000115
2316.2	0.0000047
2314.3	0.0000170
2312.3	0.0000204
2310.4	0.0000185
2308.5	0.0000163
2306.6	0.0000173
2304.6	0.0000200
2302.7	0.0000157
2300.8	0.0000030
2298.8	-0.0000024
2296.9	0.0000111
2295.0	0.0000284
2293.1	0.0000282
2291.1	0.0000178
2289.2	0.0000168
2287.3	0.0000235
2285.3	0.0000247
2283.4	0.0000180
2281.5	0.0000133
2279.6	0.0000175
2277.6	0.0000257
2275.7	0.0000290
2273.8	0.0000276
2271.8	0.0000239
2269.9	0.0000168
2268.0	0.0000103
2266.1	0.0000125
2264.1	0.0000184
2262.2	0.0000200
2260.3	0.0000197
2258.3	0.0000184
2256.4	0.0000133
2254.5	0.0000074
2252.6	0.0000076
2250.6	0.0000188
2248.7	0.0000341
2246.8	0.0000388
2244.8	0.0000317
2242.9	0.0000259
2241.0	0.0000233
2239.1	0.0000171
2237.1	0.0000131
2235.2	0.0000165
2233.3	0.0000209
2231.3	0.0000218
2229.4	0.0000166
2227.5	0.0000090
2225.6	0.0000080
2223.6	0.0000122
2221.7	0.0000146
2219.8	0.0000123
2217.8	0.0000074
2215.9	0.0000070
2214.0	0.0000109
2212.1	0.0000151
2210.1	0.0000189
2208.2	0.0000205
2206.3	0.0000179
2204.3	0.0000136
2202.4	0.0000120
2200.5	0.0000152
2198.6	0.0000188
2196.6	0.0000138
2194.7	0.0000034
2192.8	0.0000042
2190.8	0.0000156
2188.9	0.0000194
2187.0	0.0000128
2185.1	0.0000065
2183.1	0.0000021
2181.2	-0.0000038
2179.3	-0.0000055
2177.3	0.0000021
2175.4	0.0000087
2173.5	0.0000073
2171.6	0.0000069
2169.6	0.0000127
2167.7	0.0000152
2165.8	0.0000085
2163.8	0.0000037
2161.9	0.0000072
2160.0	0.0000113
2158.1	0.0000128
2156.1	0.0000104
2154.2	0.0000051
2152.3	0.0000068
2150.3	0.0000127
2148.4	0.0000114
2146.5	0.0000091
2144.6	0.0000137
2142.6	0.0000182
2140.7	0.0000161
2138.8	0.0000098
2136.8	0.0000068
2134.9	0.0000090
2133.0	0.0000102
2131.1	0.0000093
2129.1	0.0000072
2127.2	0.0000002
2125.3	-0.0000063
2123.3	-0.0000040
2121.4	0.0000033
2119.5	0.0000074
2117.6	0.0000063
2115.6	0.0000034
2113.7	0.0000004
2111.8	-0.0000036
2109.8	-0.0000067
2107.9	-0.0000062
2106.0	-0.0000047
2104.1	-0.0000029
2102.1	-0.0000008
2100.2	-0.0000021
2098.3	-0.0000059
2096.3	-0.0000079
2094.4	-0.0000138
2092.5	-0.0000276
2090.6	-0.0000425
2088.6	-0.0000617
2086.7	-0.0000952
2084.8	-0.0001337
2082.8	-0.0001603
2080.9	-0.0001702
2079.0	-0.0001664
2077.1	-0.0001556
2075.1	-0.0001465
2073.2	-0.0001484
2071.3	-0.0001606
2069.3	-0.0001715
2067.4	-0.0001772
2065.5	-0.0001846
2063.6	-0.0001935
2061.6	-0.0001975
2059.7	-0.0001982
2057.8	-0.0001962
2055.8	-0.0001872
2053.9	-0.0001796
2052.0	-0.0001842
2050.1	-0.0001880
2048.1	-0.0001729
2046.2	-0.0001460
2044.3	-0.0001272
2042.3	-0.0001229
2040.4	-0.0001212
2038.5	-0.0001086
2036.6	-0.0000892
2034.6	-0.0000756
2032.7	-0.0000685
2030.8	-0.0000627
2028.8	-0.0000575
2026.9	-0.0000542
2025.0	-0.0000500
2023.1	-0.0000417
2021.1	-0.0000318
2019.2	-0.0000233
2017.3	-0.0000164
2015.3	-0.0000100
2013.4	-0.0000030
2011.5	0.0000001
2009.6	-0.0000036
2007.6	-0.0000074
2005.7	-0.0000049
2003.8	0.0000029
2001.8	0.0000095
1999.9	0.0000101
1998.0	0.0000071
1996.1	0.0000044
1994.1	0.0000009
1992.2	-0.0000042
1990.3	-0.0000084
1988.3	-0.0000118
1986.4	-0.0000155
1984.5	-0.0000132
1982.6	-0.0000059
1980.6	-0.0000056
1978.7	-0.0000092
1976.8	-0.0000077
1974.8	-0.0000120
1972.9	-0.0000289
1971.0	-0.0000416
1969.1	-0.0000399
1967.1	-0.0000344
1965.2	-0.0000317
1963.3	-0.0000305
1961.4	-0.0000317
1959.4	-0.0000304
1957.5	-0.0000253
1955.6	-0.0000296
1953.6	-0.0000407
1951.7	-0.0000423
1949.8	-0.0000372
1947.9	-0.0000314
1945.9	-0.0000239
1944.0	-0.0000175
1942.1	-0.0000119
1940.1	-0.0000084
1938.2	-0.0000101
1936.3	-0.0000158
1934.4	-0.0000202
1932.4	-0.0000185
1930.5	-0.0000162
1928.6	-0.0000211
1926.6	-0.0000247
1924.7	-0.0000178
1922.8	-0.0000078
1920.9	-0.0000011
1918.9	0.0000051
1917.0	0.0000062
1915.1	0.0000036
1913.1	0.0000054
1911.2	0.0000053
1909.3	-0.0000010
1907.4	-0.0000080
1905.4	-0.0000148
1903.5	-0.0000206
1901.6	-0.0000211
1899.6	-0.0000156
1897.7	-0.0000109
1895.8	-0.0000122
1893.9	-0.0000153
1891.9	-0.0000114
1890.0	-0.0000037
1888.1	-0.0000024
1886.1	-0.0000055
1884.2	-0.0000043
1882.3	0.0000027
1880.4	0.0000089
1878.4	0.0000055
1876.5	-0.0000074
1874.6	-0.0000184
1872.6	-0.0000134
1870.7	0.0000091
1868.8	0.0000285
1866.9	0.0000256
1864.9	0.0000126
1863.0	0.0000058
1861.1	0.0000020
1859.1	0.0000003
1857.2	0.0000026
1855.3	0.0000037
1853.4	0.0000037
1851.4	0.0000055
1849.5	0.0000105
1847.6	0.0000277
1845.6	0.0000567
1843.7	0.0000660
1841.8	0.0000455
1839.9	0.0000313
1837.9	0.0000350
1836.0	0.0000354
1834.1	0.0000327
1832.1	0.0000417
1830.2	0.0000548
1828.3	0.0000596
1826.4	0.0000633
1824.4	0.0000695
1822.5	0.0000707
1820.6	0.0000675
1818.6	0.0000676
1816.7	0.0000724
1814.8	0.0000758
1812.9	0.0000808
1810.9	0.0000921
1809.0	0.0001026
1807.1	0.0001070
1805.1	0.0001089
1803.2	0.0001163
1801.3	0.0001279
1799.4	0.0001321
1797.4	0.0001289
1795.5	0.0001298
1793.6	0.0001344
1791.6	0.0001289
1789.7	0.0001138
1787.8	0.0001108
1785.9	0.0001239
1783.9	0.0001307
1782.0	0.0001230
1780.1	0.0001123
1778.1	0.0001063
1776.2	0.0001173
1774.3	0.0001520
1772.4	0.0001720
1770.4	0.0001462
1768.5	0.0001087
1766.6	0.0000898
1764.6	0.0000884
1762.7	0.0000985
1760.8	0.0001016
1758.9	0.0000923
1756.9	0.0000814
1755.0	0.0000814
1753.1	0.0000995
1751.1	0.0001090
1749.2	0.0000917
1747.3	0.0000740
1745.4	0.0000673
1743.4	0.0000597
1741.5	0.0000552
1739.6	0.0000578
1737.6	0.0000777
1735.7	0.0001274
1733.8	0.0001595
1731.9	0.0001343
1729.9	0.0000965
1728.0	0.0000806
1726.1	0.0000810
1724.1	0.0000885
1722.2	0.0001012
1720.3	0.0001447
1718.4	0.0002104
1716.4	0.0002206
1714.5	0.0001602
1712.6	0.0001041
1710.6	0.0000873
1708.7	0.0000923
1706.8	0.0001048
1704.9	0.0001205
1702.9	0.0001497
1701.0	0.0001766
1699.1	0.0001647
1697.1	0.0001370
1695.2	0.0001168
1693.3	0.0000874
1691.4	0.0000650
1689.4	0.0000718
1687.5	0.0001239
1685.6	0.0001975
1683.6	0.0001950
1681.7	0.0001134
1679.8	0.0000603
1677.9	0.0000732
1675.9	0.0001042
1674.0	0.0001069
1672.1	0.0000955
1670.1	0.0000983
1668.2	0.0000980
1666.3	0.0000891
1664.4	0.0000944
1662.4	0.0001058
1660.5	0.0001057
1658.6	0.0001106
1656.6	0.0001720
1654.7	0.0003047
1652.8	0.0003782
1650.9	0.0003082
1648.9	0.0002376
1647.0	0.0002383
1645.1	0.0002184
1643.1	0.0001661
1641.2	0.0001405
1639.3	0.0001524
1637.4	0.0001835
1635.4	0.0001948
1633.5	0.0001649
1631.6	0.0001380
1629.6	0.0001424
1627.7	0.0001513
1625.8	0.0001576
1623.9	0.0001746
1621.9	0.0001913
1620.0	0.0002165
1618.1	0.0002643
1616.1	0.0002770
1614.2	0.0002338
1612.3	0.0002052
1610.4	0.0002105
1608.4	0.0002177
1606.5	0.0002200
1604.6	0.0002259
1602.6	0.0002426
1600.7	0.0002692
1598.8	0.0002902
1596.9	0.0002887
1594.9	0.0002640
1593.0	0.0002278
1591.1	0.0001939
1589.1	0.0001704
1587.2	0.0001549
1585.3	0.0001431
1583.4	0.0001380
1581.4	0.0001420
1579.5	0.0001737
1577.6	0.0002387
1575.6	0.0002568
1573.7	0.0001982
1571.8	0.0001605
1569.9	0.0001650
1567.9	0.0001506
1566.0	0.0001232
1564.1	0.0001173
1562.1	0.0001528
1560.2	0.0002293
1558.3	0.0002754
1556.4	0.0002443
1554.4	0.0001845
1552.5	0.0001322
1550.6	0.0000890
1548.6	0.0000660
1546.7	0.0000759
1544.8	0.0001225
1542.9	0.0001895
1540.9	0.0002310
1539.0	0.0001981
1537.1	0.0001293
1535.1	0.0001089
1533.2	0.0001205
1531.3	0.0001167
1529.4	0.0001211
1527.4	0.0001500
1525.5	0.0001817
1523.6	0.0002154
1521.6	0.0002430
1519.7	0.0002399
1517.8	0.0002202
1515.9	0.0002088
1513.9	0.0002245
1512.0	0.0003129
1510.1	0.0005164
1508.1	0.0007637
1506.2	0.0008411
1504.3	0.0006615
1502.4	0.0004087
1500.4	0.0002511
1498.5	0.0001858
1496.6	0.0001475
1494.6	0.0001035
1492.7	0.0000691
1490.8	0.0000544
1488.9	0.0000390
1486.9	0.0000179
1485.0	0.0000024
1483.1	-0.0000105
1481.1	-0.0000221
1479.2	-0.0000116
1477.3	0.0000310
1475.4	0.0000863
1473.4	0.0001348
1471.5	0.0001585
1469.6	0.0001554
1467.6	0.0001564
1465.7	0.0001607
1463.8	0.0001424
1461.9	0.0001413
1459.9	0.0002243
1458.0	0.0003387
1456.1	0.0003529
1454.1	0.0002691
1452.2	0.0001933
1450.3	0.0001618
1448.4	0.0001534
1446.4	0.0001443
1444.5	0.0001292
1442.6	0.0001165
1440.6	0.0001093
1438.7	0.0001151
1436.8	0.0001237
1434.9	0.0001107
1432.9	0.0000889
1431.0	0.0000758
1429.1	0.0000629
1427.1	0.0000442
1425.2	0.0000146
1423.3	-0.0000003
1421.4	0.0000446
1419.4	0.0001012
1417.5	0.0000884
1415.6	0.0000351
1413.6	0.0000030
1411.7	-0.0000063
1409.8	-0.0000065
1407.9	0.0000036
1405.9	0.0000189
1404.0	0.0000226
1402.1	0.0000170
1400.1	0.0000194
1398.2	0.0000307
1396.3	0.0000374
1394.4	0.0000239
1392.4	-0.0000098
1390.5	-0.0000397
1388.6	-0.0000482
1386.6	-0.0000388
1384.7	-0.0000204
1382.8	-0.0000028
1380.9	0.0000076
1378.9	0.0000157
1377.0	0.0000281
1375.1	0.0000404
1373.1	0.0000446
1371.2	0.0000442
1369.3	0.0000401
1367.4	0.0000282
1365.4	0.0000179
1363.5	0.0000174
1361.6	0.0000171
1359.6	0.0000150
1357.7	0.0000188
1355.8	0.0000214
1353.9	0.0000118
1351.9	-0.0000039
1350.0	-0.0000169
1348.1	-0.0000283
1346.1	-0.0000333
1344.2	-0.0000243
1342.3	-0.0000038
1340.4	0.0000150
1338.4	0.0000191
1336.5	0.0000144
1334.6	0.0000148
1332.6	0.0000204
1330.7	0.0000228
1328.8	0.0000191
1326.9	0.0000162
1324.9	0.0000180
1323.0	0.0000202
1321.1	0.0000275
1319.1	0.0000388
1317.2	0.0000435
1315.3	0.0000427
1313.4	0.0000424
1311.4	0.0000474
1309.5	0.0000574
1307.6	0.0000631
1305.6	0.0000672
1303.7	0.0000730
1301.8	0.0000735
1299.9	0.0000709
1297.9	0.0000692
1296.0	0.0000683
1294.1	0.0000699
1292.1	0.0000759
1290.2	0.0000841
1288.3	0.0000931
1286.4	0.0001065
1284.4	0.0001197
1282.5	0.0001247
1280.6	0.0001285
1278.6	0.0001398
1276.7	0.0001608
1274.8	0.0001979
1272.9	0.0002595
1270.9	0.0003469
1269.0	0.0004544
1267.1	0.0005568
1265.1	0.0006079
1263.2	0.0005863
1261.3	0.0005204
1259.4	0.0004402
1257.4	0.0003524
1255.5	0.0002711
1253.6	0.0002141
1251.6	0.0001857
1249.7	0.0001787
1247.8	0.0001790
1245.9	0.0001826
1243.9	0.0001948
1242.0	0.0002114
1240.1	0.0002200
1238.1	0.0002152
1236.2	0.0002067
1234.3	0.0002025
1232.4	0.0002042
1230.4	0.0002198
1228.5	0.0002472
1226.6	0.0002661
1224.6	0.0002624
1222.7	0.0002386
1220.8	0.0002107
1218.9	0.0001956
1216.9	0.0001903
1215.0	0.0001839
1213.1	0.0001766
1211.1	0.0001746
1209.2	0.0001753
1207.3	0.0001706
1205.4	0.0001649
1203.4	0.0001643
1201.5	0.0001621
1199.6	0.0001539
1197.6	0.0001438
1195.7	0.0001319
1193.8	0.0001181
1191.9	0.0001069
1189.9	0.0001007
1188.0	0.0000985
1186.1	0.0000970
1184.1	0.0000977
1182.2	0.0001160
1180.3	0.0001495
1178.4	0.0001551
1176.4	0.0001051
1174.5	0.0000403
1172.6	0.0000245
1170.6	0.0000622
1168.7	0.0001031
1166.8	0.0001153
1164.9	0.0001054
1162.9	0.0000927
1161.0	0.0000946
1159.1	0.0001113
1157.1	0.0001300
1155.2	0.0001333
1153.3	0.0001108
1151.4	0.0000835
1149.4	0.0000736
1147.5	0.0000690
1145.6	0.0000575
1143.6	0.0000507
1141.7	0.0000523
1139.8	0.0000515
1137.9	0.0000460
1135.9	0.0000416
1134.0	0.0000403
1132.1	0.0000381
1130.1	0.0000379
1128.2	0.0000498
1126.3	0.0000722
1124.4	0.0000929
1122.4	0.0000992
1120.5	0.0000918
1118.6	0.0001003
1116.6	0.0001404
1114.7	0.0001849
1112.8	0.0002120
1110.9	0.0002243
1108.9	0.0002161
1107.0	0.0001864
1105.1	0.0001500
1103.1	0.0001129
1101.2	0.0000848
1099.3	0.0000827
1097.4	0.0000975
1095.4	0.0001075
1093.5	0.0001108
1091.6	0.0001059
1089.6	0.0000914
1087.7	0.0000826
1085.8	0.0000824
1083.9	0.0000775
1081.9	0.0000634
1080.0	0.0000461
1078.1	0.0000372
1076.1	0.0000394
1074.2	0.0000398
1072.3	0.0000292
1070.4	0.0000164
1068.4	0.0000117
1066.5	0.0000069
1064.6	0.0000018
1062.6	0.0000059
1060.7	0.0000115
1058.8	0.0000154
1056.9	0.0000274
1054.9	0.0000462
1053.0	0.0000728
1051.1	0.0001044
1049.1	0.0001249
1047.2	0.0001322
1045.3	0.0001336
1043.4	0.0001291
1041.4	0.0001220
1039.5	0.0001188
1037.6	0.0001238
1035.6	0.0001392
1033.7	0.0001604
1031.8	0.0001732
1029.9	0.0001648
1027.9	0.0001433
1026.0	0.0001283
1024.1	0.0001173
1022.1	0.0001011
1020.2	0.0000876
1018.3	0.0000801
1016.4	0.0000717
1014.4	0.0000649
1012.5	0.0000684
1010.6	0.0000792
1008.6	0.0000858
1006.7	0.0000854
1004.8	0.0000808
1002.9	0.0000771
1000.9	0.0000775
999.0	0.0000819
997.1	0.0000931
995.1	0.0001118
993.2	0.0001249
991.3	0.0001189
989.4	0.0001076
987.4	0.0001117
985.5	0.0001234
983.6	0.0001235
981.6	0.0001147
979.7	0.0001086
977.8	0.0001090
975.9	0.0001134
973.9	0.0001124
972.0	0.0001055
970.1	0.0001040
968.1	0.0001068
966.2	0.0001063
964.3	0.0001059
962.4	0.0001118
960.4	0.0001117
958.5	0.0000957
956.6	0.0000805
954.6	0.0000757
952.7	0.0000741
950.8	0.0000720
948.9	0.0000660
946.9	0.0000541
945.0	0.0000460
943.1	0.0000546
941.1	0.0000704
939.2	0.0000739
937.3	0.0000725
935.4	0.0000798
933.4	0.0000772
931.5	0.0000579
929.6	0.0000486
927.6	0.0000579
925.7	0.0000641
923.8	0.0000567
921.9	0.0000479
919.9	0.0000447
918.0	0.0000426
916.1	0.0000466
914.1	0.0000580
912.2	0.0000612
910.3	0.0000533
908.4	0.0000514
906.4	0.0000530
904.5	0.0000488
902.6	0.0000466
900.6	0.0000378
898.7	0.0000102
896.8	-0.0000181
894.9	-0.0000292
892.9	-0.0000220
891.0	-0.0000043
889.1	0.0000077
887.1	0.0000101
885.2	0.0000127
883.3	0.0000202
881.4	0.0000286
879.4	0.0000387
877.5	0.0000565
875.6	0.0000762
873.6	0.0000810
871.7	0.0000715
869.8	0.0000757
867.9	0.0000970
865.9	0.0001111
864.0	0.0001233
862.1	0.0001325
860.1	0.0001179
858.2	0.0000948
856.3	0.0000871
854.4	0.0000930
852.4	0.0001026
850.5	0.0001049
848.6	0.0001086
846.6	0.0001345
844.7	0.0001635
842.8	0.0001665
840.9	0.0001500
838.9	0.0001304
837.0	0.0001092
835.1	0.0000705
833.1	0.0000136
831.2	-0.0000206
829.3	-0.0000138
827.4	0.0000093
825.4	0.0000374
823.5	0.0000548
821.6	0.0000317
819.6	-0.0000205
817.7	-0.0000489
815.8	-0.0000232
813.9	0.0000082
811.9	-0.0000107
810.0	-0.0000541
808.1	-0.0000811
806.1	-0.0000947
804.2	-0.0001039
802.3	-0.0001009
800.4	-0.0000748
798.4	-0.0000469
796.5	-0.0000434
794.6	-0.0000604
792.6	-0.0000832
790.7	-0.0000848
788.8	-0.0000711
786.9	-0.0000870
784.9	-0.0001255
783.0	-0.0001313
781.1	-0.0000880
779.1	-0.0000626
777.2	-0.0000870
775.3	-0.0000820
773.4	0.0000013
771.4	0.0000700
769.5	0.0000370
767.6	-0.0000285
765.6	-0.0000734
763.7	-0.0001203
761.8	-0.0001178
759.9	-0.0000445
757.9	0.0000155
756.0	0.0000344
754.1	0.0000557
752.1	0.0001316
750.2	0.0003197
748.3	0.0005640
746.4	0.0007536
744.4	0.0008405
742.5	0.0007526
740.6	0.0005171
738.6	0.0003040
736.7	0.0001511
734.8	-0.0000456
732.9	-0.0002116
730.9	-0.0001739
729.0	-0.0000315
727.1	0.0000253
725.1	-0.0000336
723.2	-0.0001357
721.3	-0.0002210
719.4	-0.0002933
717.4	-0.0003023
715.5	-0.0001712
713.6	0.0000347
711.6	0.0002229
709.7	0.0003704
707.8	0.0003414
705.9	0.0001371
703.9	0.0000354
702.0	0.0001395
700.1	0.0002825
698.1	0.0002699
696.2	0.0001694
694.3	0.0002101
692.4	0.0003886
690.4	0.0004832
688.5	0.0004159
686.6	0.0004048
684.6	0.0005145
682.7	0.0004764
680.8	0.0002612
678.9	0.0000795
676.9	-0.0001346
675.0	-0.0002656
673.1	-0.0000184
671.1	0.0002315
669.2	0.0001639
667.3	0.0001172
665.4	0.0001790
663.4	0.0003140
661.5	0.0006801
659.6	0.0009904
657.6	0.0009067
655.7	0.0005082
653.8	-0.0000056
651.9	-0.0003055
649.9	-0.0002447
