3997.9	-0.0000094
3996.0	0.0000012
3994.1	0.0000245
3992.1	0.0000444
3990.2	0.0000548
3988.3	0.0000558
3986.3	0.0000510
3984.4	0.0000487
3982.5	0.0000494
3980.6	0.0000467
3978.6	0.0000397
3976.7	0.0000328
3974.8	0.0000311
3972.8	0.0000310
3970.9	0.0000315
3969.0	0.0000396
3967.1	0.0000503
3965.1	0.0000536
3963.2	0.0000449
3961.3	0.0000285
3959.3	0.0000128
3957.4	-0.0000027
3955.5	-0.0000142
3953.6	-0.0000081
3951.6	0.0000166
3949.7	0.0000387
3947.8	0.0000388
3945.8	0.0000376
3943.9	0.0000523
3942.0	0.0000506
3940.1	0.0000240
3938.1	0.0000082
3936.2	0.0000137
3934.3	0.0000253
3932.3	0.0000298
3930.4	0.0000212
3928.5	0.0000083
3926.6	0.0000057
3924.6	0.0000142
3922.7	0.0000282
3920.8	0.0000540
3918.8	0.0000793
3916.9	0.0000761
3915.0	0.0000591
3913.1	0.0000520
3911.1	0.0000447
3909.2	0.0000447
3907.3	0.0000844
3905.3	0.0001502
3903.4	0.0001861
3901.5	0.0001722
3899.6	0.0001287
3897.6	0.0000709
3895.7	0.0000318
3893.8	0.0000446
3891.8	0.0000761
3889.9	0.0000867
3888.0	0.0001002
3886.1	0.0001099
3884.1	0.0000797
3882.2	0.0000538
3880.3	0.0000534
3878.3	0.0000439
3876.4	0.0000512
3874.5	0.0001013
3872.6	0.0001857
3870.6	0.0002526
3868.7	0.0002272
3866.8	0.0001716
3864.8	0.0001652
3862.9	0.0001525
3861.0	0.0001025
3859.1	0.0000839
3857.1	0.0002049
3855.2	0.0004431
3853.3	0.0005337
3851.3	0.0003418
3849.4	0.0000987
3847.5	0.0000081
3845.6	0.0000388
3843.6	0.0000955
3841.7	0.0001511
3839.8	0.0002246
3837.8	0.0002671
3835.9	0.0002147
3834.0	0.0001252
3832.1	0.0000674
3830.1	0.0000307
3828.2	0.0000079
3826.3	0.0000056
3824.3	0.0000468
3822.4	0.0001290
3820.5	0.0001638
3818.6	0.0001585
3816.6	0.0001727
3814.7	0.0001319
3812.8	0.0000440
3810.8	0.0000289
3808.9	0.0000958
3807.0	0.0001447
3805.1	0.0001493
3803.1	0.0001935
3801.2	0.0002247
3799.3	0.0001474
3797.3	0.0000536
3795.4	0.0000028
3793.5	-0.0000383
3791.6	-0.0000566
3789.6	-0.0000506
3787.7	-0.0000496
3785.8	-0.0000509
3783.8	-0.0000386
3781.9	-0.0000158
3780.0	-0.0000027
3778.1	-0.0000149
3776.1	-0.0000384
3774.2	-0.0000455
3772.3	-0.0000241
3770.3	0.0000028
3768.4	0.0000065
3766.5	-0.0000035
3764.6	-0.0000176
3762.6	-0.0000237
3760.7	-0.0000041
3758.8	0.0000088
3756.8	0.0000108
3754.9	0.0000786
3753.0	0.0002299
3751.1	0.0003393
3749.1	0.0003168
3747.2	0.0003035
3745.3	0.0003675
3743.3	0.0003025
3741.4	0.0001060
3739.5	0.0000286
3737.6	0.0000936
3735.6	0.0001370
3733.7	0.0000992
3731.8	0.0000277
3729.8	-0.0000264
3727.9	-0.0000355
3726.0	-0.0000219
3724.1	-0.0000309
3722.1	-0.0000583
3720.2	-0.0000835
3718.3	-0.0000995
3716.3	-0.0000863
3714.4	-0.0000145
3712.5	0.0000620
3710.6	0.0000383
3708.6	-0.0000582
3706.7	-0.0001277
3704.8	-0.0001321
3702.8	-0.0001052
3700.9	-0.0001112
3699.0	-0.0001480
3697.1	-0.0001691
3695.1	-0.0001579
3693.2	-0.0001075
3691.3	-0.0000174
3689.3	0.0000451
3687.4	-0.0000050
3685.5	-0.0001230
3683.6	-0.0001938
3681.6	-0.0001879
3679.7	-0.0001226
3677.8	0.0000054
3675.8	0.0001091
3673.9	0.0000945
3672.0	0.0000524
3670.1	0.0000224
3668.1	-0.0000659
3666.2	-0.0001631
3664.3	-0.0002030
3662.3	-0.0002042
3660.4	-0.0001766
3658.5	-0.0001205
3656.6	-0.0000892
3654.6	-0.0001047
3652.7	-0.0000684
3650.8	0.0000470
3648.8	0.0000909
3646.9	-0.0000079
3645.0	-0.0001261
3643.1	-0.0001727
3641.1	-0.0001784
3639.2	-0.0001855
3637.3	-0.0001998
3635.3	-0.0002032
3633.4	-0.0001662
3631.5	-0.0000601
3629.6	0.0000410
3627.6	0.0000031
3625.7	-0.0001169
3623.8	-0.0001669
3621.8	-0.0001295
3619.9	-0.0000731
3618.0	-0.0000559
3616.1	-0.0000690
3614.1	-0.0000653
3612.2	-0.0000439
3610.3	-0.0000316
3608.3	-0.0000467
3606.4	-0.0000898
3604.5	-0.0001281
3602.6	-0.0001382
3600.6	-0.0001319
3598.7	-0.0001196
3596.8	-0.0001033
3594.8	-0.0000872
3592.9	-0.0000739
3591.0	-0.0000464
3589.1	-0.0000002
3587.1	0.0000144
3585.2	-0.0000235
3583.3	-0.0000612
3581.3	-0.0000695
3579.4	-0.0000638
3577.5	-0.0000543
3575.6	-0.0000447
3573.6	-0.0000398
3571.7	-0.0000251
3569.8	0.0000218
3567.8	0.0000771
3565.9	0.0000871
3564.0	0.0000599
3562.1	0.0000409
3560.1	0.0000340
3558.2	0.0000338
3556.3	0.0000457
3554.3	0.0000625
3552.4	0.0000702
3550.5	0.0000770
3548.6	0.0001038
3546.6	0.0001336
3544.7	0.0001405
3542.8	0.0001377
3540.8	0.0001416
3538.9	0.0001576
3537.0	0.0001868
3535.1	0.0002138
3533.1	0.0002283
3531.2	0.0002393
3529.3	0.0002499
3527.3	0.0002612
3525.4	0.0002793
3523.5	0.0002979
3521.6	0.0003061
3519.6	0.0003072
3517.7	0.0003188
3515.8	0.0003485
3513.8	0.0003868
3511.9	0.0004180
3510.0	0.0004370
3508.1	0.0004540
3506.1	0.0004776
3504.2	0.0005103
3502.3	0.0005422
3500.3	0.0005596
3498.4	0.0005603
3496.5	0.0005489
3494.6	0.0005439
3492.6	0.0005569
3490.7	0.0005776
3488.8	0.0005965
3486.8	0.0006135
3484.9	0.0006331
3483.0	0.0006491
3481.1	0.0006491
3479.1	0.0006384
3477.2	0.0006297
3475.3	0.0006193
3473.3	0.0006122
3471.4	0.0006239
3469.5	0.0006431
3467.6	0.0006580
3465.6	0.0006646
3463.7	0.0006597
3461.8	0.0006614
3459.8	0.0006716
3457.9	0.0006701
3456.0	0.0006692
3454.1	0.0006805
3452.1	0.0006871
3450.2	0.0006947
3448.3	0.0007138
3446.3	0.0007277
3444.4	0.0007311
3442.5	0.0007304
3440.6	0.0007250
3438.6	0.0007229
3436.7	0.0007313
3434.8	0.0007347
3432.8	0.0007277
3430.9	0.0007331
3429.0	0.0007534
3427.1	0.0007648
3425.1	0.0007640
3423.2	0.0007652
3421.3	0.0007658
3419.3	0.0007582
3417.4	0.0007518
3415.5	0.0007507
3413.6	0.0007475
3411.6	0.0007462
3409.7	0.0007491
3407.8	0.0007458
3405.8	0.0007416
3403.9	0.0007506
3402.0	0.0007605
3400.1	0.0007612
3398.1	0.0007655
3396.2	0.0007748
3394.3	0.0007759
3392.3	0.0007625
3390.4	0.0007461
3388.5	0.0007422
3386.6	0.0007384
3384.6	0.0007243
3382.7	0.0007164
3380.8	0.0007169
3378.8	0.0007143
3376.9	0.0007106
3375.0	0.0007137
3373.1	0.0007168
3371.1	0.0007064
3369.2	0.0006867
3367.3	0.0006717
3365.3	0.0006618
3363.4	0.0006505
3361.5	0.0006375
3359.6	0.0006270
3357.6	0.0006164
3355.7	0.0006025
3353.8	0.0005986
3351.8	0.0006128
3349.9	0.0006224
3348.0	0.0006058
3346.1	0.0005714
3344.1	0.0005500
3342.2	0.0005557
3340.3	0.0005650
3338.3	0.0005552
3336.4	0.0005339
3334.5	0.0005181
3332.6	0.0005090
3330.6	0.0004970
3328.7	0.0004839
3326.8	0.0004773
3324.8	0.0004680
3322.9	0.0004543
3321.0	0.0004504
3319.1	0.0004531
3317.1	0.0004559
3315.2	0.0004591
3313.3	0.0004546
3311.3	0.0004400
3309.4	0.0004246
3307.5	0.0004130
3305.6	0.0004045
3303.6	0.0004025
3301.7	0.0004089
3299.8	0.0004124
3297.8	0.0004039
3295.9	0.0003904
3294.0	0.0003829
3292.1	0.0003777
3290.1	0.0003603
3288.2	0.0003388
3286.3	0.0003332
3284.3	0.0003417
3282.4	0.0003478
3280.5	0.0003392
3278.6	0.0003222
3276.6	0.0003146
3274.7	0.0003194
3272.8	0.0003200
3270.8	0.0003077
3268.9	0.0002976
3267.0	0.0002981
3265.1	0.0002974
3263.1	0.0002894
3261.2	0.0002785
3259.3	0.0002705
3257.3	0.0002672
3255.4	0.0002655
3253.5	0.0002627
3251.6	0.0002563
3249.6	0.0002480
3247.7	0.0002455
3245.8	0.0002483
3243.8	0.0002462
3241.9	0.0002365
3240.0	0.0002282
3238.1	0.0002285
3236.1	0.0002284
3234.2	0.0002166
3232.3	0.0002000
3230.3	0.0001919
3228.4	0.0001959
3226.5	0.0002026
3224.6	0.0002004
3222.6	0.0001888
3220.7	0.0001786
3218.8	0.0001770
3216.8	0.0001814
3214.9	0.0001804
3213.0	0.0001675
3211.1	0.0001504
3209.1	0.0001437
3207.2	0.0001485
3205.3	0.0001508
3203.3	0.0001404
3201.4	0.0001197
3199.5	0.0001073
3197.6	0.0001157
3195.6	0.0001234
3193.7	0.0001132
3191.8	0.0001059
3189.8	0.0001163
3187.9	0.0001269
3186.0	0.0001196
3184.1	0.0000976
3182.1	0.0000756
3180.2	0.0000645
3178.3	0.0000636
3176.3	0.0000667
3174.4	0.0000675
3172.5	0.0000622
3170.6	0.0000566
3168.6	0.0000576
3166.7	0.0000608
3164.8	0.0000558
3162.8	0.0000474
3160.9	0.0000440
3159.0	0.0000385
3157.1	0.0000352
3155.1	0.0000481
3153.2	0.0000630
3151.3	0.0000592
3149.3	0.0000440
3147.4	0.0000323
3145.5	0.0000258
3143.6	0.0000158
3141.6	0.0000017
3139.7	-0.0000014
3137.8	0.0000056
3135.8	0.0000052
3133.9	0.0000009
3132.0	0.0000021
3130.1	0.0000017
3128.1	-0.0000028
3126.2	-0.0000041
3124.3	-0.0000039
3122.3	-0.0000071
3120.4	-0.0000098
3118.5	-0.0000080
3116.6	-0.0000037
3114.6	-0.0000026
3112.7	-0.0000061
3110.8	-0.0000114
3108.8	-0.0000211
3106.9	-0.0000341
3105.0	-0.0000366
3103.1	-0.0000235
3101.1	-0.0000097
3099.2	-0.0000089
3097.3	-0.0000146
3095.3	-0.0000098
3093.4	0.0000079
3091.5	0.0000248
3089.6	0.0000305
3087.6	0.0000277
3085.7	0.0000288
3083.8	0.0000408
3081.8	0.0000605
3079.9	0.0000853
3078.0	0.0001072
3076.1	0.0001139
3074.1	0.0001038
3072.2	0.0000886
3070.3	0.0000805
3068.3	0.0000826
3066.4	0.0000955
3064.5	0.0001101
3062.6	0.0001116
3060.6	0.0001011
3058.7	0.0000921
3056.8	0.0000902
3054.8	0.0000925
3052.9	0.0000904
3051.0	0.0000717
3049.1	0.0000429
3047.1	0.0000255
3045.2	0.0000208
3043.3	0.0000196
3041.3	0.0000201
3039.4	0.0000215
3037.5	0.0000233
3035.6	0.0000243
3033.6	0.0000218
3031.7	0.0000214
3029.8	0.0000285
3027.8	0.0000357
3025.9	0.0000391
3024.0	0.0000448
3022.1	0.0000490
3020.1	0.0000417
3018.2	0.0000333
3016.3	0.0000405
3014.3	0.0000547
3012.4	0.0000569
3010.5	0.0000490
3008.6	0.0000426
3006.6	0.0000408
3004.7	0.0000403
3002.8	0.0000349
3000.8	0.0000232
2998.9	0.0000102
2997.0	0.0000032
2995.1	0.0000075
2993.1	0.0000217
2991.2	0.0000393
2989.3	0.0000526
2987.3	0.0000608
2985.4	0.0000691
2983.5	0.0000788
2981.6	0.0000867
2979.6	0.0000971
2977.7	0.0001200
2975.8	0.0001503
2973.8	0.0001772
2971.9	0.0001988
2970.0	0.0002127
2968.1	0.0002189
2966.1	0.0002245
2964.2	0.0002375
2962.3	0.0002553
2960.3	0.0002694
2958.4	0.0002789
2956.5	0.0002843
2954.6	0.0002838
2952.6	0.0002749
2950.7	0.0002542
2948.8	0.0002251
2946.8	0.0002008
2944.9	0.0001919
2943.0	0.0001967
2941.1	0.0002121
2939.1	0.0002284
2937.2	0.0002340
2935.3	0.0002355
2933.3	0.0002370
2931.4	0.0002270
2929.5	0.0002032
2927.6	0.0001773
2925.6	0.0001542
2923.7	0.0001361
2921.8	0.0001337
2919.8	0.0001473
2917.9	0.0001605
2916.0	0.0001699
2914.1	0.0001807
2912.1	0.0001886
2910.2	0.0001891
2908.3	0.0001815
2906.3	0.0001665
2904.4	0.0001493
2902.5	0.0001357
2900.6	0.0001229
2898.6	0.0001030
2896.7	0.0000782
2894.8	0.0000586
2892.8	0.0000483
2890.9	0.0000429
2889.0	0.0000341
2887.1	0.0000201
2885.1	0.0000083
2883.2	0.0000008
2881.3	-0.0000063
2879.3	-0.0000121
2877.4	-0.0000171
2875.5	-0.0000224
2873.6	-0.0000225
2871.6	-0.0000139
2869.7	-0.0000029
2867.8	0.0000011
2865.8	-0.0000004
2863.9	0.0000049
2862.0	0.0000181
2860.1	0.0000310
2858.1	0.0000440
2856.2	0.0000601
2854.3	0.0000815
2852.3	0.0001132
2850.4	0.0001578
2848.5	0.0002139
2846.6	0.0002807
2844.6	0.0003418
2842.7	0.0003638
2840.8	0.0003329
2838.8	0.0002698
2836.9	0.0002012
2835.0	0.0001417
2833.1	0.0000969
2831.1	0.0000647
2829.2	0.0000394
2827.3	0.0000193
2825.3	0.0000038
2823.4	-0.0000052
2821.5	-0.0000067
2819.6	-0.0000033
2817.6	0.0000027
2815.7	0.0000095
2813.8	0.0000134
2811.8	0.0000124
2809.9	0.0000084
2808.0	0.0000045
2806.1	0.0000016
2804.1	-0.0000010
2802.2	-0.0000007
2800.3	0.0000049
2798.3	0.0000097
2796.4	0.0000135
2794.5	0.0000225
2792.6	0.0000333
2790.6	0.0000385
2788.7	0.0000381
2786.8	0.0000320
2784.8	0.0000217
2782.9	0.0000163
2781.0	0.0000194
2779.1	0.0000223
2777.1	0.0000205
2775.2	0.0000245
2773.3	0.0000353
2771.3	0.0000407
2769.4	0.0000389
2767.5	0.0000358
2765.6	0.0000343
2763.6	0.0000378
2761.7	0.0000450
2759.8	0.0000472
2757.8	0.0000435
2755.9	0.0000428
2754.0	0.0000469
2752.1	0.0000499
2750.1	0.0000497
2748.2	0.0000525
2746.3	0.0000613
2744.3	0.0000653
2742.4	0.0000555
2740.5	0.0000394
2738.6	0.0000300
2736.6	0.0000320
2734.7	0.0000402
2732.8	0.0000463
2730.8	0.0000514
2728.9	0.0000557
2727.0	0.0000524
2725.1	0.0000460
2723.1	0.0000501
2721.2	0.0000613
2719.3	0.0000622
2717.3	0.0000546
2715.4	0.0000497
2713.5	0.0000429
2711.6	0.0000356
2709.6	0.0000392
2707.7	0.0000512
2705.8	0.0000642
2703.8	0.0000721
2701.9	0.0000687
2700.0	0.0000594
2698.1	0.0000583
2696.1	0.0000665
2694.2	0.0000753
2692.3	0.0000763
2690.3	0.0000652
2688.4	0.0000505
2686.5	0.0000428
2684.6	0.0000436
2682.6	0.0000478
2680.7	0.0000476
2678.8	0.0000452
2676.8	0.0000513
2674.9	0.0000641
2673.0	0.0000682
2671.1	0.0000596
2669.1	0.0000526
2667.2	0.0000519
2665.3	0.0000537
2663.3	0.0000574
2661.4	0.0000632
2659.5	0.0000695
2657.6	0.0000751
2655.6	0.0000786
2653.7	0.0000770
2651.8	0.0000764
2649.8	0.0000860
2647.9	0.0000986
2646.0	0.0001021
2644.1	0.0001024
2642.1	0.0001063
2640.2	0.0001057
2638.3	0.0001001
2636.3	0.0000990
2634.4	0.0001045
2632.5	0.0001130
2630.6	0.0001201
2628.6	0.0001224
2626.7	0.0001228
2624.8	0.0001224
2622.8	0.0001162
2620.9	0.0001043
2619.0	0.0000929
2617.1	0.0000856
2615.1	0.0000819
2613.2	0.0000789
2611.3	0.0000744
2609.3	0.0000707
2607.4	0.0000697
2605.5	0.0000703
2603.6	0.0000695
2601.6	0.0000651
2599.7	0.0000574
2597.8	0.0000522
2595.8	0.0000543
2593.9	0.0000580
2592.0	0.0000549
2590.1	0.0000494
2588.1	0.0000555
2586.2	0.0000739
2584.3	0.0000878
2582.3	0.0000878
2580.4	0.0000809
2578.5	0.0000772
2576.6	0.0000763
2574.6	0.0000736
2572.7	0.0000754
2570.8	0.0000833
2568.8	0.0000901
2566.9	0.0000940
2565.0	0.0000903
2563.1	0.0000755
2561.1	0.0000645
2559.2	0.0000702
2557.3	0.0000819
2555.3	0.0000827
2553.4	0.0000758
2551.5	0.0000703
2549.6	0.0000676
2547.6	0.0000671
2545.7	0.0000654
2543.8	0.0000625
2541.8	0.0000654
2539.9	0.0000740
2538.0	0.0000781
2536.1	0.0000723
2534.1	0.0000674
2532.2	0.0000689
2530.3	0.0000719
2528.3	0.0000785
2526.4	0.0000835
2524.5	0.0000735
2522.6	0.0000537
2520.6	0.0000399
2518.7	0.0000393
2516.8	0.0000449
2514.8	0.0000435
2512.9	0.0000341
2511.0	0.0000256
2509.1	0.0000234
2507.1	0.0000275
2505.2	0.0000297
2503.3	0.0000260
2501.3	0.0000241
2499.4	0.0000289
2497.5	0.0000332
2495.6	0.0000306
2493.6	0.0000240
2491.7	0.0000198
2489.8	0.0000206
2487.8	0.0000245
2485.9	0.0000241
2484.0	0.0000174
2482.1	0.0000127
2480.1	0.0000135
2478.2	0.0000133
2476.3	0.0000113
2474.3	0.0000108
2472.4	0.0000085
2470.5	0.0000047
2468.6	0.0000068
2466.6	0.0000111
2464.7	0.0000095
2462.8	0.0000049
2460.8	-0.0000001
2458.9	-0.0000011
2457.0	0.0000076
2455.1	0.0000180
2453.1	0.0000241
2451.2	0.0000299
2449.3	0.0000299
2447.3	0.0000199
2445.4	0.0000122
2443.5	0.0000123
2441.6	0.0000107
2439.6	0.0000061
2437.7	0.0000082
2435.8	0.0000190
2433.8	0.0000311
2431.9	0.0000385
2430.0	0.0000363
2428.1	0.0000269
2426.1	0.0000243
2424.2	0.0000271
2422.3	0.0000238
2420.3	0.0000210
2418.4	0.0000229
2416.5	0.0000190
2414.6	0.0000090
2412.6	0.0000050
2410.7	0.0000095
2408.8	0.0000092
2406.8	-0.0000052
2404.9	-0.0000186
2403.0	-0.0000165
2401.1	-0.0000084
2399.1	-0.0000035
2397.2	-0.0000007
2395.3	0.0000000
2393.3	-0.0000020
2391.4	-0.0000060
2389.5	-0.0000066
2387.6	0.0000019
2385.6	0.0000141
2383.7	0.0000186
2381.8	0.0000108
2379.8	-0.0000004
2377.9	-0.0000006
2376.0	0.0000139
2374.1	0.0000304
2372.1	0.0000353
2370.2	0.0000311
2368.3	0.0000288
2366.3	0.0000299
2364.4	0.0000336
2362.5	0.0000404
2360.6	0.0000449
2358.6	0.0000422
2356.7	0.0000354
2354.8	0.0000305
2352.8	0.0000239
2350.9	0.0000113
2349.0	0.0000037
2347.1	0.0000124
2345.1	0.0000323
2343.2	0.0000529
2341.3	0.0000722
2339.3	0.0000923
2337.4	0.0001019
2335.5	0.0000897
2333.6	0.0000645
2331.6	0.0000420
2329.7	0.0000333
2327.8	0.0000336
2325.8	0.0000247
2323.9	0.0000059
2322.0	-0.0000058
2320.1	-0.0000039
2318.1	0.0000048
2316.2	0.0000093
2314.3	0.0000064
2312.3	0.0000034
2310.4	0.0000047
2308.5	0.0000070
2306.6	0.0000084
2304.6	0.0000133
2302.7	0.0000207
2300.8	0.0000214
2298.8	0.0000190
2296.9	0.0000243
2295.0	0.0000294
2293.1	0.0000202
2291.1	0.0000082
2289.2	0.0000083
2287.3	0.0000134
2285.3	0.0000138
2283.4	0.0000118
2281.5	0.0000146
2279.6	0.0000207
2277.6	0.0000224
2275.7	0.0000216
2273.8	0.0000264
2271.8	0.0000333
2269.9	0.0000384
2268.0	0.0000430
2266.1	0.0000452
2264.1	0.0000459
2262.2	0.0000472
2260.3	0.0000466
2258.3	0.0000451
2256.4	0.0000446
2254.5	0.0000387
2252.6	0.0000285
2250.6	0.0000262
2248.7	0.0000320
2246.8	0.0000343
2244.8	0.0000303
2242.9	0.0000279
2241.0	0.0000310
2239.1	0.0000336
2237.1	0.0000327
2235.2	0.0000328
2233.3	0.0000384
2231.3	0.0000469
2229.4	0.0000473
2227.5	0.0000359
2225.6	0.0000222
2223.6	0.0000184
2221.7	0.0000276
2219.8	0.0000391
2217.8	0.0000403
2215.9	0.0000376
2214.0	0.0000404
2212.1	0.0000424
2210.1	0.0000402
2208.2	0.0000400
2206.3	0.0000424
2204.3	0.0000415
2202.4	0.0000372
2200.5	0.0000378
2198.6	0.0000435
2196.6	0.0000435
2194.7	0.0000357
2192.8	0.0000311
2190.8	0.0000319
2188.9	0.0000297
2187.0	0.0000268
2185.1	0.0000278
2183.1	0.0000279
2181.2	0.0000220
2179.3	0.0000136
2177.3	0.0000122
2175.4	0.0000180
2173.5	0.0000231
2171.6	0.0000271
2169.6	0.0000330
2167.7	0.0000358
2165.8	0.0000335
2163.8	0.0000310
2161.9	0.0000284
2160.0	0.0000287
2158.1	0.0000367
2156.1	0.0000424
2154.2	0.0000388
2152.3	0.0000366
2150.3	0.0000404
2148.4	0.0000437
2146.5	0.0000451
2144.6	0.0000493
2142.6	0.0000575
2140.7	0.0000623
2138.8	0.0000591
2136.8	0.0000545
2134.9	0.0000519
2133.0	0.0000476
2131.1	0.0000435
2129.1	0.0000422
2127.2	0.0000381
2125.3	0.0000280
2123.3	0.0000211
2121.4	0.0000251
2119.5	0.0000348
2117.6	0.0000438
2115.6	0.0000502
2113.7	0.0000525
2111.8	0.0000492
2109.8	0.0000443
2107.9	0.0000445
2106.0	0.0000499
2104.1	0.0000551
2102.1	0.0000549
2100.2	0.0000484
2098.3	0.0000447
2096.3	0.0000458
2094.4	0.0000414
2092.5	0.0000299
2090.6	0.0000154
2088.6	-0.0000082
2086.7	-0.0000421
2084.8	-0.0000736
2082.8	-0.0000920
2080.9	-0.0000971
2079.0	-0.0000907
2077.1	-0.0000770
2075.1	-0.0000631
2073.2	-0.0000562
2071.3	-0.0000609
2069.3	-0.0000732
2067.4	-0.0000848
2065.5	-0.0000915
2063.6	-0.0000941
2061.6	-0.0000941
2059.7	-0.0000928
2057.8	-0.0000889
2055.8	-0.0000832
2053.9	-0.0000821
2052.0	-0.0000839
2050.1	-0.0000784
2048.1	-0.0000625
2046.2	-0.0000409
2044.3	-0.0000196
2042.3	-0.0000014
2040.4	0.0000144
2038.5	0.0000282
2036.6	0.0000398
2034.6	0.0000503
2032.7	0.0000630
2030.8	0.0000789
2028.8	0.0000925
2026.9	0.0000969
2025.0	0.0000973
2023.1	0.0001004
2021.1	0.0001018
2019.2	0.0001029
2017.3	0.0001047
2015.3	0.0001001
2013.4	0.0000946
2011.5	0.0000937
2009.6	0.0000900
2007.6	0.0000835
2005.7	0.0000806
2003.8	0.0000810
2001.8	0.0000826
1999.9	0.0000839
1998.0	0.0000859
1996.1	0.0000893
1994.1	0.0000932
1992.2	0.0000969
1990.3	0.0000969
1988.3	0.0000886
1986.4	0.0000752
1984.5	0.0000669
1982.6	0.0000701
1980.6	0.0000779
1978.7	0.0000817
1976.8	0.0000773
1974.8	0.0000641
1972.9	0.0000513
1971.0	0.0000475
1969.1	0.0000490
1967.1	0.0000493
1965.2	0.0000505
1963.3	0.0000550
1961.4	0.0000566
1959.4	0.0000543
1957.5	0.0000549
1955.6	0.0000520
1953.6	0.0000430
1951.7	0.0000386
1949.8	0.0000408
1947.9	0.0000482
1945.9	0.0000611
1944.0	0.0000720
1942.1	0.0000734
1940.1	0.0000658
1938.2	0.0000544
1936.3	0.0000430
1934.4	0.0000388
1932.4	0.0000459
1930.5	0.0000526
1928.6	0.0000487
1926.6	0.0000431
1924.7	0.0000492
1922.8	0.0000620
1920.9	0.0000737
1918.9	0.0000813
1917.0	0.0000751
1915.1	0.0000607
1913.1	0.0000548
1911.2	0.0000550
1909.3	0.0000510
1907.4	0.0000409
1905.4	0.0000295
1903.5	0.0000214
1901.6	0.0000173
1899.6	0.0000182
1897.7	0.0000248
1895.8	0.0000317
1893.9	0.0000361
1891.9	0.0000453
1890.0	0.0000546
1888.1	0.0000513
1886.1	0.0000413
1884.2	0.0000327
1882.3	0.0000289
1880.4	0.0000335
1878.4	0.0000384
1876.5	0.0000331
1874.6	0.0000210
1872.6	0.0000241
1870.7	0.0000541
1868.8	0.0000774
1866.9	0.0000601
1864.9	0.0000252
1863.0	0.0000039
1861.1	-0.0000078
1859.1	-0.0000153
1857.2	-0.0000175
1855.3	-0.0000189
1853.4	-0.0000221
1851.4	-0.0000230
1849.5	-0.0000144
1847.6	0.0000202
1845.6	0.0000762
1843.7	0.0000891
1841.8	0.0000402
1839.9	0.0000022
1837.9	0.0000011
1836.0	0.0000014
1834.1	0.0000026
1832.1	0.0000278
1830.2	0.0000555
1828.3	0.0000589
1826.4	0.0000575
1824.4	0.0000548
1822.5	0.0000376
1820.6	0.0000220
1818.6	0.0000177
1816.7	0.0000180
1814.8	0.0000230
1812.9	0.0000373
1810.9	0.0000519
1809.0	0.0000534
1807.1	0.0000456
1805.1	0.0000432
1803.2	0.0000577
1801.3	0.0000781
1799.4	0.0000787
1797.4	0.0000686
1795.5	0.0000908
1793.6	0.0001385
1791.6	0.0001389
1789.7	0.0000847
1787.8	0.0000548
1785.9	0.0000666
1783.9	0.0000688
1782.0	0.0000548
1780.1	0.0000462
1778.1	0.0000466
1776.2	0.0000835
1774.3	0.0001755
1772.4	0.0002384
1770.4	0.0002068
1768.5	0.0001447
1766.6	0.0001039
1764.6	0.0000940
1762.7	0.0001126
1760.8	0.0001148
1758.9	0.0000973
1756.9	0.0000832
1755.0	0.0000785
1753.1	0.0001058
1751.1	0.0001354
1749.2	0.0001134
1747.3	0.0000691
1745.4	0.0000442
1743.4	0.0000436
1741.5	0.0000656
1739.6	0.0000851
1737.6	0.0001330
1735.7	0.0002671
1733.8	0.0003566
1731.9	0.0002894
1729.9	0.0002033
1728.0	0.0001988
1726.1	0.0002395
1724.1	0.0002940
1722.2	0.0003768
1720.3	0.0005474
1718.4	0.0007598
1716.4	0.0008448
1714.5	0.0007832
1712.6	0.0007123
1710.6	0.0006958
1708.7	0.0007249
1706.8	0.0007683
1704.9	0.0007984
1702.9	0.0008746
1701.0	0.0009753
1699.1	0.0009698
1697.1	0.0008852
1695.2	0.0007554
1693.3	0.0005665
1691.4	0.0004323
1689.4	0.0004064
1687.5	0.0004876
1685.6	0.0006205
1683.6	0.0005969
1681.7	0.0004091
1679.8	0.0002791
1677.9	0.0002902
1675.9	0.0003433
1674.0	0.0003383
1672.1	0.0003143
1670.1	0.0003144
1668.2	0.0002778
1666.3	0.0002170
1664.4	0.0002076
1662.4	0.0002163
1660.5	0.0001893
1658.6	0.0001777
1656.6	0.0003094
1654.7	0.0005942
1652.8	0.0007194
1650.9	0.0005302
1648.9	0.0003661
1647.0	0.0003686
1645.1	0.0003262
1643.1	0.0002114
1641.2	0.0001533
1639.3	0.0002004
1637.4	0.0003231
1635.4	0.0003755
1633.5	0.0002747
1631.6	0.0001714
1629.6	0.0001715
1627.7	0.0002217
1625.8	0.0003003
1623.9	0.0004132
1621.9	0.0005224
1620.0	0.0006497
1618.1	0.0008012
1616.1	0.0008260
1614.2	0.0006938
1612.3	0.0005811
1610.4	0.0005467
1608.4	0.0005376
1606.5	0.0005681
1604.6	0.0006999
1602.6	0.0009316
1600.7	0.0011472
1598.8	0.0012023
1596.9	0.0010585
1594.9	0.0007985
1593.0	0.0005396
1591.1	0.0003538
1589.1	0.0002376
1587.2	0.0001561
1585.3	0.0000970
1583.4	0.0000590
1581.4	0.0000400
1579.5	0.0000893
1577.6	0.0002136
1575.6	0.0002415
1573.7	0.0001229
1571.8	0.0000570
1569.9	0.0000723
1567.9	0.0000406
1566.0	-0.0000204
1564.1	-0.0000141
1562.1	0.0001508
1560.2	0.0004113
1558.3	0.0004791
1556.4	0.0003050
1554.4	0.0001288
1552.5	0.0000280
1550.6	-0.0000329
1548.6	-0.0000485
1546.7	-0.0000057
1544.8	0.0001108
1542.9	0.0002986
1540.9	0.0004719
1539.0	0.0004659
1537.1	0.0003257
1535.1	0.0002862
1533.2	0.0003602
1531.3	0.0004370
1529.4	0.0005399
1527.4	0.0006913
1525.5	0.0008783
1523.6	0.0011356
1521.6	0.0014037
1519.7	0.0015566
1517.8	0.0016452
1515.9	0.0018583
1513.9	0.0025166
1512.0	0.0039251
1510.1	0.0056161
1508.1	0.0063706
1506.2	0.0055669
1504.3	0.0038549
1502.4	0.0022398
1500.4	0.0011783
1498.5	0.0006359
1496.6	0.0003664
1494.6	0.0001634
1492.7	0.0000288
1490.8	-0.0000043
1488.9	-0.0000134
1486.9	-0.0000472
1485.0	-0.0000717
1483.1	-0.0000532
1481.1	0.0000178
1479.2	0.0001672
1477.3	0.0004286
1475.4	0.0007772
1473.4	0.0010850
1471.5	0.0011878
1469.6	0.0010933
1467.6	0.0009802
1465.7	0.0009263
1463.8	0.0008817
1461.9	0.0008741
1459.9	0.0009930
1458.0	0.0011461
1456.1	0.0011053
1454.1	0.0008933
1452.2	0.0007335
1450.3	0.0007040
1448.4	0.0007620
1446.4	0.0008481
1444.5	0.0008880
1442.6	0.0008358
1440.6	0.0007223
1438.7	0.0006182
1436.8	0.0004981
1434.9	0.0003191
1432.9	0.0001724
1431.0	0.0001198
1429.1	0.0001088
1427.1	0.0001007
1425.2	0.0000914
1423.3	0.0001065
1421.4	0.0001881
1419.4	0.0002737
1417.5	0.0002603
1415.6	0.0001918
1413.6	0.0001552
1411.7	0.0001483
1409.8	0.0001494
1407.9	0.0001622
1405.9	0.0001855
1404.0	0.0002015
1402.1	0.0002173
1400.1	0.0002475
1398.2	0.0002791
1396.3	0.0003014
1394.4	0.0002994
1392.4	0.0002665
1390.5	0.0002480
1388.6	0.0002674
1386.6	0.0002913
1384.7	0.0003087
1382.8	0.0003377
1380.9	0.0003794
1378.9	0.0004313
1377.0	0.0005026
1375.1	0.0005865
1373.1	0.0006470
1371.2	0.0006759
1369.3	0.0006963
1367.4	0.0007149
1365.4	0.0007372
1363.5	0.0007577
1361.6	0.0007448
1359.6	0.0006906
1357.7	0.0006156
1355.8	0.0005266
1353.9	0.0004248
1351.9	0.0003295
1350.0	0.0002531
1348.1	0.0001959
1346.1	0.0001611
1344.2	0.0001462
1342.3	0.0001436
1340.4	0.0001378
1338.4	0.0001118
1336.5	0.0000778
1334.6	0.0000557
1332.6	0.0000429
1330.7	0.0000336
1328.8	0.0000283
1326.9	0.0000307
1324.9	0.0000434
1323.0	0.0000702
1321.1	0.0001176
1319.1	0.0001825
1317.2	0.0002613
1315.3	0.0003599
1313.4	0.0004805
1311.4	0.0006216
1309.5	0.0007689
1307.6	0.0008773
1305.6	0.0009018
1303.7	0.0008392
1301.8	0.0007299
1299.9	0.0006295
1297.9	0.0005698
1296.0	0.0005540
1294.1	0.0005762
1292.1	0.0006231
1290.2	0.0006789
1288.3	0.0007431
1286.4	0.0008311
1284.4	0.0009551
1282.5	0.0011170
1280.6	0.0013418
1278.6	0.0017050
1276.7	0.0023199
1274.8	0.0032590
1272.9	0.0043885
1270.9	0.0053205
1269.0	0.0056895
1267.1	0.0054489
1265.1	0.0048105
1263.2	0.0040131
1261.3	0.0032097
1259.4	0.0024778
1257.4	0.0018740
1255.5	0.0014543
1253.6	0.0012336
1251.6	0.0011694
1249.7	0.0011927
1247.8	0.0012478
1245.9	0.0013108
1243.9	0.0013769
1242.0	0.0014549
1240.1	0.0015507
1238.1	0.0016503
1236.2	0.0017385
1234.3	0.0017998
1232.4	0.0018178
1230.4	0.0017979
1228.5	0.0017545
1226.6	0.0016940
1224.6	0.0016230
1222.7	0.0015454
1220.8	0.0014660
1218.9	0.0013969
1216.9	0.0013409
1215.0	0.0012889
1213.1	0.0012372
1211.1	0.0011867
1209.2	0.0011302
1207.3	0.0010588
1205.4	0.0009797
1203.4	0.0009014
1201.5	0.0008221
1199.6	0.0007424
1197.6	0.0006603
1195.7	0.0005726
1193.8	0.0004842
1191.9	0.0004070
1189.9	0.0003604
1188.0	0.0003578
1186.1	0.0003910
1184.1	0.0004505
1182.2	0.0005311
1180.3	0.0006065
1178.4	0.0006362
1176.4	0.0005872
1174.5	0.0004784
1172.6	0.0003946
1170.6	0.0003676
1168.7	0.0003357
1166.8	0.0002814
1164.9	0.0002422
1162.9	0.0002278
1161.0	0.0002463
1159.1	0.0002959
1157.1	0.0003392
1155.2	0.0003408
1153.3	0.0002953
1151.4	0.0002306
1149.4	0.0001798
1147.5	0.0001496
1145.6	0.0001327
1143.6	0.0001222
1141.7	0.0001137
1139.8	0.0001033
1137.9	0.0000908
1135.9	0.0000838
1134.0	0.0000873
1132.1	0.0001001
1130.1	0.0001233
1128.2	0.0001528
1126.3	0.0001813
1124.4	0.0002127
1122.4	0.0002628
1120.5	0.0003804
1118.6	0.0006448
1116.6	0.0010546
1114.7	0.0014512
1112.8	0.0016264
1110.9	0.0014893
1108.9	0.0011226
1107.0	0.0007134
1105.1	0.0004098
1103.1	0.0002309
1101.2	0.0001365
1099.3	0.0001015
1097.4	0.0000929
1095.4	0.0000866
1093.5	0.0000906
1091.6	0.0000933
1089.6	0.0000753
1087.7	0.0000592
1085.8	0.0000647
1083.9	0.0000688
1081.9	0.0000574
1080.0	0.0000484
1078.1	0.0000543
1076.1	0.0000633
1074.2	0.0000646
1072.3	0.0000587
1070.4	0.0000487
1068.4	0.0000409
1066.5	0.0000414
1064.6	0.0000516
1062.6	0.0000656
1060.7	0.0000814
1058.8	0.0001119
1056.9	0.0001681
1054.9	0.0002492
1053.0	0.0003719
1051.1	0.0005693
1049.1	0.0008429
1047.2	0.0011292
1045.3	0.0013176
1043.4	0.0013196
1041.4	0.0011356
1039.5	0.0008670
1037.6	0.0006601
1035.6	0.0006314
1033.7	0.0008203
1031.8	0.0011443
1029.9	0.0014246
1027.9	0.0015230
1026.0	0.0014303
1024.1	0.0012187
1022.1	0.0009728
1020.2	0.0007571
1018.3	0.0005922
1016.4	0.0004718
1014.4	0.0003901
1012.5	0.0003319
1010.6	0.0002773
1008.6	0.0002285
1006.7	0.0001904
1004.8	0.0001562
1002.9	0.0001311
1000.9	0.0001207
999.0	0.0001187
997.1	0.0001236
995.1	0.0001352
993.2	0.0001434
991.3	0.0001346
989.4	0.0001129
987.4	0.0000971
985.5	0.0000952
983.6	0.0000995
981.6	0.0001049
979.7	0.0001149
977.8	0.0001332
975.9	0.0001506
973.9	0.0001491
972.0	0.0001355
970.1	0.0001373
968.1	0.0001546
966.2	0.0001665
964.3	0.0001658
962.4	0.0001625
960.4	0.0001607
958.5	0.0001497
956.6	0.0001316
954.6	0.0001181
952.7	0.0001086
950.8	0.0000972
948.9	0.0000811
946.9	0.0000615
945.0	0.0000460
943.1	0.0000402
941.1	0.0000430
939.2	0.0000504
937.3	0.0000601
935.4	0.0000663
933.4	0.0000602
931.5	0.0000519
929.6	0.0000653
927.6	0.0001039
925.7	0.0001403
923.8	0.0001559
921.9	0.0001660
919.9	0.0001761
918.0	0.0001685
916.1	0.0001430
914.1	0.0001146
912.2	0.0000896
910.3	0.0000666
908.4	0.0000428
906.4	0.0000107
904.5	-0.0000238
902.6	-0.0000368
900.6	-0.0000275
898.7	-0.0000226
896.8	-0.0000268
894.9	-0.0000250
892.9	-0.0000210
891.0	-0.0000214
889.1	-0.0000219
887.1	-0.0000270
885.2	-0.0000388
883.3	-0.0000497
881.4	-0.0000597
879.4	-0.0000667
877.5	-0.0000594
875.6	-0.0000304
873.6	-0.0000011
871.7	-0.0000069
869.8	-0.0000368
867.9	-0.0000614
865.9	-0.0000678
864.0	-0.0000446
862.1	-0.0000206
860.1	-0.0000259
858.2	-0.0000340
856.3	-0.0000272
854.4	-0.0000075
852.4	0.0000318
850.5	0.0000733
848.6	0.0001004
846.6	0.0001319
844.7	0.0001804
842.8	0.0002373
840.9	0.0002817
838.9	0.0002945
837.0	0.0002688
835.1	0.0001968
833.1	0.0000999
831.2	0.0000237
829.3	-0.0000212
827.4	-0.0000448
825.4	-0.0000551
823.5	-0.0000625
821.6	-0.0000703
819.6	-0.0000836
817.7	-0.0000936
815.8	-0.0000804
813.9	-0.0000636
811.9	-0.0000602
810.0	-0.0000511
808.1	-0.0000433
806.1	-0.0000506
804.2	-0.0000499
802.3	-0.0000329
800.4	-0.0000258
798.4	-0.0000308
796.5	-0.0000338
794.6	-0.0000336
792.6	-0.0000297
790.7	-0.0000283
788.8	-0.0000318
786.9	-0.0000437
784.9	-0.0000633
783.0	-0.0000604
781.1	-0.0000180
779.1	0.0000386
777.2	0.0000991
775.3	0.0002090
773.4	0.0004047
771.4	0.0006193
769.5	0.0007928
767.6	0.0010469
765.6	0.0014876
763.7	0.0020007
761.8	0.0024134
759.9	0.0025953
757.9	0.0024776
756.0	0.0022015
754.1	0.0020121
752.1	0.0019797
750.2	0.0020053
748.3	0.0019784
746.4	0.0018962
744.4	0.0017852
742.5	0.0015418
740.6	0.0011526
738.6	0.0007955
736.7	0.0005172
734.8	0.0002214
732.9	0.0000168
730.9	0.0000658
729.0	0.0002016
727.1	0.0002330
725.1	0.0001825
723.2	0.0001550
721.3	0.0001756
719.4	0.0001921
717.4	0.0003064
715.5	0.0004906
713.6	0.0004476
711.6	0.0001980
709.7	0.0000242
707.8	-0.0000162
705.9	-0.0000452
703.9	-0.0000707
702.0	0.0000130
700.1	0.0001170
698.1	0.0000160
696.2	-0.0001545
694.3	-0.0000879
692.4	0.0000938
690.4	0.0001125
688.5	0.0000474
686.6	0.0000886
684.6	0.0001874
682.7	0.0002079
680.8	0.0001699
678.9	0.0001263
676.9	0.0000850
675.0	0.0001785
673.1	0.0003469
671.1	0.0002887
669.2	0.0001132
667.3	0.0000993
665.4	0.0000738
663.4	0.0000208
661.5	0.0002758
659.6	0.0006272
657.6	0.0006083
655.7	0.0002720
653.8	-0.0001121
651.9	-0.0003209
649.9	-0.0002787
