3997.9	0.0000163
3996.0	0.0000018
3994.1	-0.0000002
3992.1	0.0000116
3990.2	0.0000306
3988.3	0.0000425
3986.3	0.0000347
3984.4	0.0000203
3982.5	0.0000238
3980.6	0.0000362
3978.6	0.0000336
3976.7	0.0000238
3974.8	0.0000243
3972.8	0.0000246
3970.9	0.0000142
3969.0	0.0000090
3967.1	0.0000136
3965.1	0.0000149
3963.2	0.0000082
3961.3	-0.0000026
3959.3	-0.0000146
3957.4	-0.0000266
3955.5	-0.0000342
3953.6	-0.0000297
3951.6	-0.0000091
3949.7	0.0000132
3947.8	0.0000118
3945.8	-0.0000023
3943.9	-0.0000046
3942.0	-0.0000143
3940.1	-0.0000360
3938.1	-0.0000421
3936.2	-0.0000332
3934.3	-0.0000137
3932.3	0.0000051
3930.4	-0.0000067
3928.5	-0.0000390
3926.6	-0.0000559
3924.6	-0.0000463
3922.7	-0.0000151
3920.8	0.0000180
3918.8	0.0000227
3916.9	0.0000044
3915.0	-0.0000043
3913.1	-0.0000090
3911.1	-0.0000286
3909.2	-0.0000335
3907.3	0.0000026
3905.3	0.0000444
3903.4	0.0000555
3901.5	0.0000447
3899.6	0.0000262
3897.6	0.0000052
3895.7	-0.0000046
3893.8	-0.0000031
3891.8	-0.0000098
3889.9	-0.0000127
3888.0	0.0000103
3886.1	0.0000214
3884.1	0.0000061
3882.2	0.0000236
3880.3	0.0000516
3878.3	0.0000364
3876.4	0.0000295
3874.5	0.0000596
3872.6	0.0001061
3870.6	0.0001552
3868.7	0.0001740
3866.8	0.0001878
3864.8	0.0002161
3862.9	0.0001940
3861.0	0.0001081
3859.1	0.0000540
3857.1	0.0001928
3855.2	0.0005420
3853.3	0.0007599
3851.3	0.0005656
3849.4	0.0002023
3847.5	0.0000129
3845.6	0.0000058
3843.6	0.0000434
3841.7	0.0000731
3839.8	0.0001063
3837.8	0.0001462
3835.9	0.0001680
3834.0	0.0001511
3832.1	0.0001061
3830.1	0.0000621
3828.2	0.0000416
3826.3	0.0000303
3824.3	0.0000304
3822.4	0.0000740
3820.5	0.0001065
3818.6	0.0000821
3816.6	0.0000504
3814.7	0.0000173
3812.8	-0.0000185
3810.8	-0.0000011
3808.9	0.0000804
3807.0	0.0001414
3805.1	0.0001306
3803.1	0.0001198
3801.2	0.0001294
3799.3	0.0001119
3797.3	0.0000828
3795.4	0.0000417
3793.5	-0.0000151
3791.6	-0.0000429
3789.6	-0.0000382
3787.7	-0.0000321
3785.8	-0.0000309
3783.8	-0.0000231
3781.9	-0.0000010
3780.0	0.0000152
3778.1	0.0000009
3776.1	-0.0000250
3774.2	-0.0000296
3772.3	-0.0000109
3770.3	0.0000113
3768.4	0.0000189
3766.5	0.0000120
3764.6	0.0000033
3762.6	0.0000265
3760.7	0.0000939
3758.8	0.0001274
3756.8	0.0000974
3754.9	0.0000949
3753.0	0.0002165
3751.1	0.0004172
3749.1	0.0005034
3747.2	0.0005237
3745.3	0.0006119
3743.3	0.0005375
3741.4	0.0002567
3739.5	0.0000873
3737.6	0.0001171
3735.6	0.0001978
3733.7	0.0002100
3731.8	0.0001467
3729.8	0.0000875
3727.9	0.0000854
3726.0	0.0000915
3724.1	0.0000524
3722.1	0.0000108
3720.2	0.0000030
3718.3	0.0000102
3716.3	0.0000483
3714.4	0.0001769
3712.5	0.0003011
3710.6	0.0002382
3708.6	0.0000754
3706.7	-0.0000061
3704.8	0.0000051
3702.8	0.0000484
3700.9	0.0000601
3699.0	0.0000294
3697.1	-0.0000026
3695.1	-0.0000046
3693.2	0.0000481
3691.3	0.0001505
3689.3	0.0002128
3687.4	0.0001516
3685.5	0.0000293
3683.6	-0.0000426
3681.6	-0.0000411
3679.7	0.0000183
3677.8	0.0001663
3675.8	0.0003355
3673.9	0.0003796
3672.0	0.0003397
3670.1	0.0002646
3668.1	0.0001295
3666.2	0.0000186
3664.3	-0.0000198
3662.3	-0.0000238
3660.4	0.0000121
3658.5	0.0001112
3656.6	0.0001853
3654.6	0.0001731
3652.7	0.0002074
3650.8	0.0003167
3648.8	0.0003300
3646.9	0.0002031
3645.0	0.0000643
3643.1	0.0000026
3641.1	-0.0000086
3639.2	-0.0000162
3637.3	-0.0000232
3635.3	-0.0000155
3633.4	0.0000431
3631.5	0.0001831
3629.6	0.0002863
3627.6	0.0002103
3625.7	0.0000643
3623.8	0.0000097
3621.8	0.0000388
3619.9	0.0000821
3618.0	0.0000872
3616.1	0.0000774
3614.1	0.0001090
3612.2	0.0001599
3610.3	0.0001810
3608.3	0.0001499
3606.4	0.0000759
3604.5	0.0000141
3602.6	-0.0000032
3600.6	-0.0000025
3598.7	-0.0000023
3596.8	0.0000047
3594.8	0.0000238
3592.9	0.0000292
3591.0	0.0000157
3589.1	0.0000308
3587.1	0.0000583
3585.2	0.0000383
3583.3	-0.0000034
3581.3	-0.0000206
3579.4	-0.0000185
3577.5	-0.0000136
3575.6	-0.0000119
3573.6	-0.0000092
3571.7	0.0000134
3569.8	0.0000683
3567.8	0.0001170
3565.9	0.0001002
3564.0	0.0000444
3562.1	0.0000185
3560.1	0.0000194
3558.2	0.0000139
3556.3	0.0000034
3554.3	0.0000016
3552.4	0.0000062
3550.5	0.0000074
3548.6	0.0000134
3546.6	0.0000232
3544.7	0.0000154
3542.8	-0.0000064
3540.8	-0.0000216
3538.9	-0.0000245
3537.0	-0.0000157
3535.1	-0.0000065
3533.1	-0.0000056
3531.2	-0.0000049
3529.3	-0.0000030
3527.3	-0.0000031
3525.4	0.0000009
3523.5	0.0000090
3521.6	0.0000032
3519.6	-0.0000187
3517.7	-0.0000298
3515.8	-0.0000207
3513.8	-0.0000060
3511.9	0.0000000
3510.0	-0.0000001
3508.1	0.0000099
3506.1	0.0000289
3504.2	0.0000429
3502.3	0.0000369
3500.3	0.0000147
3498.4	0.0000006
3496.5	-0.0000005
3494.6	0.0000020
3492.6	0.0000033
3490.7	-0.0000005
3488.8	-0.0000070
3486.8	-0.0000017
3484.9	0.0000204
3483.0	0.0000332
3481.1	0.0000177
3479.1	-0.0000043
3477.2	-0.0000117
3475.3	-0.0000154
3473.3	-0.0000184
3471.4	-0.0000104
3469.5	0.0000007
3467.6	0.0000091
3465.6	0.0000141
3463.7	0.0000112
3461.8	0.0000081
3459.8	0.0000105
3457.9	0.0000113
3456.0	0.0000095
3454.1	0.0000139
3452.1	0.0000229
3450.2	0.0000291
3448.3	0.0000380
3446.3	0.0000492
3444.4	0.0000521
3442.5	0.0000469
3440.6	0.0000427
3438.6	0.0000417
3436.7	0.0000373
3434.8	0.0000301
3432.8	0.0000292
3430.9	0.0000384
3429.0	0.0000554
3427.1	0.0000755
3425.1	0.0000831
3423.2	0.0000708
3421.3	0.0000596
3419.3	0.0000633
3417.4	0.0000642
3415.5	0.0000520
3413.6	0.0000441
3411.6	0.0000502
3409.7	0.0000500
3407.8	0.0000317
3405.8	0.0000195
3403.9	0.0000363
3402.0	0.0000646
3400.1	0.0000823
3398.1	0.0000909
3396.2	0.0000986
3394.3	0.0001073
3392.3	0.0001086
3390.4	0.0000977
3388.5	0.0000843
3386.6	0.0000759
3384.6	0.0000729
3382.7	0.0000701
3380.8	0.0000670
3378.8	0.0000770
3376.9	0.0000960
3375.0	0.0001023
3373.1	0.0000939
3371.1	0.0000834
3369.2	0.0000800
3367.3	0.0000825
3365.3	0.0000814
3363.4	0.0000748
3361.5	0.0000710
3359.6	0.0000771
3357.6	0.0000875
3355.7	0.0000890
3353.8	0.0000887
3351.8	0.0000998
3349.9	0.0001143
3348.0	0.0001193
3346.1	0.0001111
3344.1	0.0000984
3342.2	0.0000944
3340.3	0.0000957
3338.3	0.0000968
3336.4	0.0000993
3334.5	0.0000966
3332.6	0.0000867
3330.6	0.0000794
3328.7	0.0000788
3326.8	0.0000813
3324.8	0.0000805
3322.9	0.0000769
3321.0	0.0000780
3319.1	0.0000839
3317.1	0.0000933
3315.2	0.0001043
3313.3	0.0001095
3311.3	0.0001122
3309.4	0.0001183
3307.5	0.0001195
3305.6	0.0001133
3303.6	0.0001123
3301.7	0.0001189
3299.8	0.0001244
3297.8	0.0001285
3295.9	0.0001380
3294.0	0.0001500
3292.1	0.0001535
3290.1	0.0001497
3288.2	0.0001499
3286.3	0.0001529
3284.3	0.0001484
3282.4	0.0001413
3280.5	0.0001415
3278.6	0.0001459
3276.6	0.0001533
3274.7	0.0001642
3272.8	0.0001695
3270.8	0.0001711
3268.9	0.0001815
3267.0	0.0001901
3265.1	0.0001798
3263.1	0.0001625
3261.2	0.0001549
3259.3	0.0001614
3257.3	0.0001852
3255.4	0.0002092
3253.5	0.0002112
3251.6	0.0001977
3249.6	0.0001887
3247.7	0.0001957
3245.8	0.0002149
3243.8	0.0002282
3241.9	0.0002269
3240.0	0.0002184
3238.1	0.0002096
3236.1	0.0002034
3234.2	0.0001978
3232.3	0.0001946
3230.3	0.0001953
3228.4	0.0001940
3226.5	0.0001917
3224.6	0.0001892
3222.6	0.0001856
3220.7	0.0001864
3218.8	0.0001912
3216.8	0.0001965
3214.9	0.0001977
3213.0	0.0001906
3211.1	0.0001846
3209.1	0.0001879
3207.2	0.0001940
3205.3	0.0001958
3203.3	0.0001889
3201.4	0.0001734
3199.5	0.0001623
3197.6	0.0001665
3195.6	0.0001765
3193.7	0.0001773
3191.8	0.0001702
3189.8	0.0001661
3187.9	0.0001646
3186.0	0.0001616
3184.1	0.0001577
3182.1	0.0001481
3180.2	0.0001392
3178.3	0.0001417
3176.3	0.0001481
3174.4	0.0001499
3172.5	0.0001507
3170.6	0.0001516
3168.6	0.0001523
3166.7	0.0001525
3164.8	0.0001434
3162.8	0.0001251
3160.9	0.0001133
3159.0	0.0001111
3157.1	0.0001154
3155.1	0.0001282
3153.2	0.0001383
3151.3	0.0001318
3149.3	0.0001159
3147.4	0.0001029
3145.5	0.0000996
3143.6	0.0001004
3141.6	0.0000944
3139.7	0.0000882
3137.8	0.0000885
3135.8	0.0000908
3133.9	0.0000921
3132.0	0.0000861
3130.1	0.0000699
3128.1	0.0000541
3126.2	0.0000474
3124.3	0.0000469
3122.3	0.0000497
3120.4	0.0000517
3118.5	0.0000491
3116.6	0.0000441
3114.6	0.0000394
3112.7	0.0000372
3110.8	0.0000327
3108.8	0.0000194
3106.9	0.0000033
3105.0	-0.0000012
3103.1	0.0000089
3101.1	0.0000218
3099.2	0.0000229
3097.3	0.0000034
3095.3	-0.0000154
3093.4	-0.0000037
3091.5	0.0000229
3089.6	0.0000338
3087.6	0.0000287
3085.7	0.0000257
3083.8	0.0000322
3081.8	0.0000356
3079.9	0.0000267
3078.0	0.0000111
3076.1	0.0000066
3074.1	0.0000178
3072.2	0.0000269
3070.3	0.0000259
3068.3	0.0000228
3066.4	0.0000243
3064.5	0.0000256
3062.6	0.0000145
3060.6	-0.0000099
3058.7	-0.0000299
3056.8	-0.0000274
3054.8	-0.0000048
3052.9	0.0000153
3051.0	0.0000170
3049.1	0.0000108
3047.1	0.0000089
3045.2	0.0000065
3043.3	0.0000059
3041.3	0.0000078
3039.4	0.0000010
3037.5	-0.0000072
3035.6	-0.0000059
3033.6	-0.0000037
3031.7	-0.0000049
3029.8	-0.0000080
3027.8	-0.0000184
3025.9	-0.0000311
3024.0	-0.0000325
3022.1	-0.0000335
3020.1	-0.0000625
3018.2	-0.0001045
3016.3	-0.0001100
3014.3	-0.0000753
3012.4	-0.0000424
3010.5	-0.0000312
3008.6	-0.0000260
3006.6	-0.0000185
3004.7	-0.0000150
3002.8	-0.0000144
3000.8	-0.0000134
2998.9	-0.0000128
2997.0	-0.0000080
2995.1	0.0000021
2993.1	0.0000063
2991.2	0.0000045
2989.3	0.0000073
2987.3	0.0000102
2985.4	0.0000053
2983.5	0.0000007
2981.6	-0.0000008
2979.6	-0.0000088
2977.7	-0.0000162
2975.8	-0.0000099
2973.8	0.0000000
2971.9	-0.0000041
2970.0	-0.0000211
2968.1	-0.0000354
2966.1	-0.0000443
2964.2	-0.0000489
2962.3	-0.0000414
2960.3	-0.0000244
2958.4	-0.0000078
2956.5	0.0000065
2954.6	0.0000143
2952.6	0.0000102
2950.7	0.0000011
2948.8	-0.0000027
2946.8	-0.0000029
2944.9	-0.0000052
2943.0	-0.0000052
2941.1	0.0000024
2939.1	0.0000097
2937.2	0.0000102
2935.3	0.0000055
2933.3	-0.0000010
2931.4	-0.0000017
2929.5	0.0000013
2927.6	-0.0000014
2925.6	-0.0000050
2923.7	-0.0000001
2921.8	0.0000089
2919.8	0.0000093
2917.9	0.0000011
2916.0	0.0000042
2914.1	0.0000207
2912.1	0.0000301
2910.2	0.0000274
2908.3	0.0000203
2906.3	0.0000092
2904.4	0.0000013
2902.5	0.0000059
2900.6	0.0000146
2898.6	0.0000122
2896.7	0.0000033
2894.8	0.0000019
2892.8	0.0000062
2890.9	0.0000116
2889.0	0.0000165
2887.1	0.0000159
2885.1	0.0000097
2883.2	0.0000027
2881.3	0.0000002
2879.3	0.0000003
2877.4	-0.0000041
2875.5	-0.0000077
2873.6	-0.0000023
2871.6	0.0000076
2869.7	0.0000142
2867.8	0.0000150
2865.8	0.0000123
2863.9	0.0000110
2862.0	0.0000142
2860.1	0.0000223
2858.1	0.0000288
2856.2	0.0000244
2854.3	0.0000129
2852.3	0.0000066
2850.4	0.0000064
2848.5	0.0000062
2846.6	0.0000062
2844.6	0.0000087
2842.7	0.0000132
2840.8	0.0000160
2838.8	0.0000119
2836.9	0.0000063
2835.0	0.0000087
2833.1	0.0000172
2831.1	0.0000218
2829.2	0.0000185
2827.3	0.0000136
2825.3	0.0000117
2823.4	0.0000123
2821.5	0.0000117
2819.6	0.0000069
2817.6	0.0000051
2815.7	0.0000103
2813.8	0.0000159
2811.8	0.0000146
2809.9	0.0000058
2808.0	-0.0000013
2806.1	0.0000021
2804.1	0.0000085
2802.2	0.0000104
2800.3	0.0000090
2798.3	0.0000077
2796.4	0.0000109
2794.5	0.0000169
2792.6	0.0000201
2790.6	0.0000219
2788.7	0.0000246
2786.8	0.0000271
2784.8	0.0000283
2782.9	0.0000268
2781.0	0.0000236
2779.1	0.0000200
2777.1	0.0000138
2775.2	0.0000085
2773.3	0.0000116
2771.3	0.0000201
2769.4	0.0000239
2767.5	0.0000193
2765.6	0.0000120
2763.6	0.0000065
2761.7	0.0000039
2759.8	0.0000050
2757.8	0.0000043
2755.9	-0.0000010
2754.0	-0.0000015
2752.1	0.0000057
2750.1	0.0000080
2748.2	0.0000061
2746.3	0.0000135
2744.3	0.0000240
2742.4	0.0000248
2740.5	0.0000200
2738.6	0.0000190
2736.6	0.0000208
2734.7	0.0000193
2732.8	0.0000142
2730.8	0.0000114
2728.9	0.0000126
2727.0	0.0000129
2725.1	0.0000114
2723.1	0.0000106
2721.2	0.0000086
2719.3	0.0000049
2717.3	0.0000022
2715.4	-0.0000020
2713.5	-0.0000090
2711.6	-0.0000125
2709.6	-0.0000071
2707.7	0.0000047
2705.8	0.0000136
2703.8	0.0000125
2701.9	0.0000079
2700.0	0.0000081
2698.1	0.0000100
2696.1	0.0000055
2694.2	-0.0000021
2692.3	-0.0000035
2690.3	-0.0000021
2688.4	-0.0000049
2686.5	-0.0000067
2684.6	-0.0000018
2682.6	0.0000031
2680.7	0.0000033
2678.8	0.0000038
2676.8	0.0000065
2674.9	0.0000086
2673.0	0.0000091
2671.1	0.0000068
2669.1	0.0000022
2667.2	-0.0000042
2665.3	-0.0000106
2663.3	-0.0000114
2661.4	-0.0000047
2659.5	0.0000029
2657.6	0.0000065
2655.6	0.0000032
2653.7	-0.0000060
2651.8	-0.0000098
2649.8	-0.0000024
2647.9	0.0000058
2646.0	0.0000071
2644.1	0.0000072
2642.1	0.0000122
2640.2	0.0000151
2638.3	0.0000075
2636.3	-0.0000059
2634.4	-0.0000128
2632.5	-0.0000080
2630.6	-0.0000007
2628.6	0.0000010
2626.7	0.0000014
2624.8	0.0000042
2622.8	0.0000044
2620.9	0.0000011
2619.0	-0.0000030
2617.1	-0.0000069
2615.1	-0.0000064
2613.2	-0.0000016
2611.3	-0.0000001
2609.3	-0.0000025
2607.4	-0.0000061
2605.5	-0.0000087
2603.6	-0.0000076
2601.6	-0.0000052
2599.7	-0.0000042
2597.8	-0.0000054
2595.8	-0.0000101
2593.9	-0.0000162
2592.0	-0.0000216
2590.1	-0.0000253
2588.1	-0.0000216
2586.2	-0.0000086
2584.3	0.0000027
2582.3	0.0000034
2580.4	-0.0000005
2578.5	-0.0000022
2576.6	-0.0000038
2574.6	-0.0000057
2572.7	-0.0000049
2570.8	-0.0000045
2568.8	-0.0000048
2566.9	-0.0000016
2565.0	-0.0000002
2563.1	-0.0000031
2561.1	-0.0000045
2559.2	-0.0000019
2557.3	-0.0000000
2555.3	-0.0000018
2553.4	-0.0000028
2551.5	-0.0000060
2549.6	-0.0000111
2547.6	-0.0000079
2545.7	-0.0000005
2543.8	0.0000013
2541.8	0.0000013
2539.9	0.0000037
2538.0	0.0000084
2536.1	0.0000134
2534.1	0.0000145
2532.2	0.0000115
2530.3	0.0000094
2528.3	0.0000101
2526.4	0.0000099
2524.5	0.0000047
2522.6	-0.0000041
2520.6	-0.0000102
2518.7	-0.0000110
2516.8	-0.0000081
2514.8	-0.0000042
2512.9	-0.0000046
2511.0	-0.0000136
2509.1	-0.0000202
2507.1	-0.0000158
2505.2	-0.0000065
2503.3	0.0000000
2501.3	0.0000032
2499.4	0.0000060
2497.5	0.0000056
2495.6	-0.0000025
2493.6	-0.0000133
2491.7	-0.0000187
2489.8	-0.0000152
2487.8	-0.0000080
2485.9	-0.0000064
2484.0	-0.0000097
2482.1	-0.0000100
2480.1	-0.0000059
2478.2	-0.0000054
2476.3	-0.0000098
2474.3	-0.0000125
2472.4	-0.0000116
2470.5	-0.0000084
2468.6	-0.0000026
2466.6	0.0000009
2464.7	-0.0000015
2462.8	-0.0000057
2460.8	-0.0000094
2458.9	-0.0000096
2457.0	-0.0000048
2455.1	-0.0000066
2453.1	-0.0000160
2451.2	-0.0000190
2449.3	-0.0000171
2447.3	-0.0000187
2445.4	-0.0000219
2443.5	-0.0000237
2441.6	-0.0000241
2439.6	-0.0000224
2437.7	-0.0000161
2435.8	-0.0000071
2433.8	0.0000003
2431.9	0.0000020
2430.0	-0.0000043
2428.1	-0.0000094
2426.1	-0.0000032
2424.2	0.0000049
2422.3	0.0000006
2420.3	-0.0000122
2418.4	-0.0000211
2416.5	-0.0000228
2414.6	-0.0000174
2412.6	-0.0000073
2410.7	0.0000004
2408.8	0.0000002
2406.8	-0.0000059
2404.9	-0.0000077
2403.0	-0.0000044
2401.1	-0.0000040
2399.1	-0.0000016
2397.2	0.0000019
2395.3	-0.0000051
2393.3	-0.0000140
2391.4	-0.0000139
2389.5	-0.0000112
2387.6	-0.0000092
2385.6	-0.0000062
2383.7	-0.0000041
2381.8	-0.0000055
2379.8	-0.0000105
2377.9	-0.0000158
2376.0	-0.0000189
2374.1	-0.0000227
2372.1	-0.0000316
2370.2	-0.0000482
2368.3	-0.0000662
2366.3	-0.0000737
2364.4	-0.0000726
2362.5	-0.0000740
2360.6	-0.0000758
2358.6	-0.0000714
2356.7	-0.0000602
2354.8	-0.0000449
2352.8	-0.0000318
2350.9	-0.0000258
2349.0	-0.0000273
2347.1	-0.0000349
2345.1	-0.0000451
2343.2	-0.0000536
2341.3	-0.0000547
2339.3	-0.0000472
2337.4	-0.0000385
2335.5	-0.0000371
2333.6	-0.0000443
2331.6	-0.0000493
2329.7	-0.0000447
2327.8	-0.0000410
2325.8	-0.0000470
2323.9	-0.0000529
2322.0	-0.0000509
2320.1	-0.0000427
2318.1	-0.0000310
2316.2	-0.0000227
2314.3	-0.0000199
2312.3	-0.0000193
2310.4	-0.0000203
2308.5	-0.0000215
2306.6	-0.0000206
2304.6	-0.0000124
2302.7	-0.0000026
2300.8	-0.0000034
2298.8	-0.0000066
2296.9	0.0000041
2295.0	0.0000202
2293.1	0.0000207
2291.1	0.0000094
2289.2	0.0000056
2287.3	0.0000088
2285.3	0.0000083
2283.4	0.0000046
2281.5	0.0000016
2279.6	0.0000012
2277.6	0.0000018
2275.7	0.0000009
2273.8	0.0000004
2271.8	0.0000001
2269.9	0.0000003
2268.0	0.0000018
2266.1	0.0000023
2264.1	0.0000023
2262.2	0.0000051
2260.3	0.0000070
2258.3	0.0000047
2256.4	0.0000008
2254.5	-0.0000034
2252.6	-0.0000043
2250.6	0.0000033
2248.7	0.0000151
2246.8	0.0000219
2244.8	0.0000225
2242.9	0.0000213
2241.0	0.0000160
2239.1	0.0000054
2237.1	-0.0000048
2235.2	-0.0000092
2233.3	-0.0000062
2231.3	-0.0000020
2229.4	-0.0000003
2227.5	0.0000036
2225.6	0.0000093
2223.6	0.0000132
2221.7	0.0000154
2219.8	0.0000130
2217.8	0.0000062
2215.9	0.0000045
2214.0	0.0000082
2212.1	0.0000083
2210.1	0.0000036
2208.2	-0.0000023
2206.3	-0.0000055
2204.3	-0.0000054
2202.4	-0.0000033
2200.5	0.0000021
2198.6	0.0000097
2196.6	0.0000129
2194.7	0.0000081
2192.8	0.0000052
2190.8	0.0000092
2188.9	0.0000055
2187.0	-0.0000072
2185.1	-0.0000134
2183.1	-0.0000124
2181.2	-0.0000129
2179.3	-0.0000149
2177.3	-0.0000150
2175.4	-0.0000124
2173.5	-0.0000089
2171.6	-0.0000044
2169.6	0.0000039
2167.7	0.0000089
2165.8	0.0000033
2163.8	-0.0000045
2161.9	-0.0000076
2160.0	-0.0000077
2158.1	-0.0000055
2156.1	-0.0000058
2154.2	-0.0000071
2152.3	-0.0000020
2150.3	0.0000031
2148.4	0.0000003
2146.5	-0.0000006
2144.6	0.0000088
2142.6	0.0000177
2140.7	0.0000152
2138.8	0.0000072
2136.8	0.0000074
2134.9	0.0000136
2133.0	0.0000115
2131.1	0.0000011
2129.1	-0.0000075
2127.2	-0.0000123
2125.3	-0.0000172
2123.3	-0.0000217
2121.4	-0.0000209
2119.5	-0.0000118
2117.6	0.0000011
2115.6	0.0000085
2113.7	0.0000074
2111.8	0.0000007
2109.8	-0.0000053
2107.9	-0.0000025
2106.0	0.0000061
2104.1	0.0000121
2102.1	0.0000114
2100.2	0.0000006
2098.3	-0.0000100
2096.3	-0.0000084
2094.4	-0.0000054
2092.5	-0.0000136
2090.6	-0.0000297
2088.6	-0.0000531
2086.7	-0.0000879
2084.8	-0.0001232
2082.8	-0.0001434
2080.9	-0.0001493
2079.0	-0.0001476
2077.1	-0.0001386
2075.1	-0.0001249
2073.2	-0.0001183
2071.3	-0.0001205
2069.3	-0.0001236
2067.4	-0.0001279
2065.5	-0.0001344
2063.6	-0.0001368
2061.6	-0.0001316
2059.7	-0.0001251
2057.8	-0.0001197
2055.8	-0.0001105
2053.9	-0.0000950
2052.0	-0.0000725
2050.1	-0.0000448
2048.1	-0.0000229
2046.2	-0.0000120
2044.3	-0.0000028
2042.3	0.0000093
2040.4	0.0000239
2038.5	0.0000428
2036.6	0.0000612
2034.6	0.0000721
2032.7	0.0000789
2030.8	0.0000861
2028.8	0.0000901
2026.9	0.0000872
2025.0	0.0000835
2023.1	0.0000802
2021.1	0.0000744
2019.2	0.0000742
2017.3	0.0000790
2015.3	0.0000771
2013.4	0.0000677
2011.5	0.0000571
2009.6	0.0000491
2007.6	0.0000413
2005.7	0.0000296
2003.8	0.0000214
2001.8	0.0000219
1999.9	0.0000249
1998.0	0.0000278
1996.1	0.0000290
1994.1	0.0000271
1992.2	0.0000243
1990.3	0.0000201
1988.3	0.0000099
1986.4	-0.0000041
1984.5	-0.0000114
1982.6	-0.0000115
1980.6	-0.0000124
1978.7	-0.0000117
1976.8	-0.0000078
1974.8	-0.0000084
1972.9	-0.0000148
1971.0	-0.0000153
1969.1	-0.0000062
1967.1	-0.0000016
1965.2	-0.0000050
1963.3	-0.0000076
1961.4	-0.0000087
1959.4	-0.0000059
1957.5	0.0000009
1955.6	-0.0000044
1953.6	-0.0000195
1951.7	-0.0000254
1949.8	-0.0000224
1947.9	-0.0000165
1945.9	-0.0000046
1944.0	0.0000086
1942.1	0.0000112
1940.1	0.0000039
1938.2	-0.0000016
1936.3	-0.0000040
1934.4	-0.0000074
1932.4	-0.0000105
1930.5	-0.0000141
1928.6	-0.0000212
1926.6	-0.0000233
1924.7	-0.0000100
1922.8	0.0000054
1920.9	0.0000130
1918.9	0.0000204
1917.0	0.0000146
1915.1	-0.0000047
1913.1	-0.0000139
1911.2	-0.0000161
1909.3	-0.0000245
1907.4	-0.0000342
1905.4	-0.0000399
1903.5	-0.0000423
1901.6	-0.0000398
1899.6	-0.0000306
1897.7	-0.0000209
1895.8	-0.0000195
1893.9	-0.0000221
1891.9	-0.0000129
1890.0	0.0000001
1888.1	-0.0000060
1886.1	-0.0000225
1884.2	-0.0000327
1882.3	-0.0000390
1880.4	-0.0000388
1878.4	-0.0000322
1876.5	-0.0000349
1874.6	-0.0000472
1872.6	-0.0000304
1870.7	0.0000288
1868.8	0.0000708
1866.9	0.0000518
1864.9	0.0000125
1863.0	-0.0000048
1861.1	-0.0000067
1859.1	-0.0000053
1857.2	-0.0000037
1855.3	-0.0000025
1853.4	0.0000002
1851.4	0.0000081
1849.5	0.0000247
1847.6	0.0000733
1845.6	0.0001558
1843.7	0.0001830
1841.8	0.0001190
1839.9	0.0000610
1837.9	0.0000490
1836.0	0.0000425
1834.1	0.0000430
1832.1	0.0000720
1830.2	0.0000975
1828.3	0.0000888
1826.4	0.0000757
1824.4	0.0000661
1822.5	0.0000418
1820.6	0.0000199
1818.6	0.0000139
1816.7	0.0000102
1814.8	0.0000042
1812.9	0.0000077
1810.9	0.0000169
1809.0	0.0000146
1807.1	0.0000031
1805.1	0.0000012
1803.2	0.0000198
1801.3	0.0000418
1799.4	0.0000378
1797.4	0.0000220
1795.5	0.0000435
1793.6	0.0000923
1791.6	0.0000895
1789.7	0.0000269
1787.8	-0.0000079
1785.9	0.0000112
1783.9	0.0000268
1782.0	0.0000202
1780.1	0.0000116
1778.1	0.0000080
1776.2	0.0000478
1774.3	0.0001578
1772.4	0.0002283
1770.4	0.0001711
1768.5	0.0000785
1766.6	0.0000280
1764.6	0.0000227
1762.7	0.0000449
1760.8	0.0000421
1758.9	0.0000203
1756.9	0.0000111
1755.0	0.0000231
1753.1	0.0000814
1751.1	0.0001351
1749.2	0.0001089
1747.3	0.0000512
1745.4	0.0000253
1743.4	0.0000255
1741.5	0.0000409
1739.6	0.0000536
1737.6	0.0001078
1735.7	0.0002592
1733.8	0.0003374
1731.9	0.0002087
1729.9	0.0000478
1728.0	-0.0000167
1726.1	-0.0000268
1724.1	-0.0000230
1722.2	0.0000086
1720.3	0.0001436
1718.4	0.0003375
1716.4	0.0003728
1714.5	0.0002156
1712.6	0.0000592
1710.6	-0.0000006
1708.7	0.0000148
1706.8	0.0000674
1704.9	0.0001243
1702.9	0.0002270
1701.0	0.0003539
1699.1	0.0003785
1697.1	0.0003305
1695.2	0.0002555
1693.3	0.0001241
1691.4	0.0000320
1689.4	0.0000511
1687.5	0.0002109
1685.6	0.0004375
1683.6	0.0004443
1681.7	0.0002177
1679.8	0.0000583
1677.9	0.0000790
1675.9	0.0001578
1674.0	0.0001670
1672.1	0.0001468
1670.1	0.0001567
1668.2	0.0001264
1666.3	0.0000669
1664.4	0.0000639
1662.4	0.0000726
1660.5	0.0000377
1658.6	0.0000229
1656.6	0.0001813
1654.7	0.0005470
1652.8	0.0007306
1650.9	0.0005000
1648.9	0.0002852
1647.0	0.0002875
1645.1	0.0002273
1643.1	0.0000659
1641.2	-0.0000188
1639.3	0.0000220
1637.4	0.0001436
1635.4	0.0002016
1633.5	0.0001013
1631.6	-0.0000149
1629.6	-0.0000333
1627.7	-0.0000145
1625.8	0.0000013
1623.9	0.0000156
1621.9	0.0000141
1620.0	0.0000700
1618.1	0.0002171
1616.1	0.0002545
1614.2	0.0001090
1612.3	-0.0000080
1610.4	-0.0000165
1608.4	-0.0000047
1606.5	-0.0000108
1604.6	-0.0000231
1602.6	-0.0000344
1600.7	-0.0000395
1598.8	-0.0000300
1596.9	-0.0000136
1594.9	-0.0000061
1593.0	-0.0000080
1591.1	-0.0000113
1589.1	-0.0000164
1587.2	-0.0000241
1585.3	-0.0000281
1583.4	-0.0000260
1581.4	-0.0000113
1579.5	0.0000875
1577.6	0.0002839
1575.6	0.0003514
1573.7	0.0002131
1571.8	0.0001316
1569.9	0.0001544
1567.9	0.0001217
1566.0	0.0000632
1564.1	0.0000855
1562.1	0.0002631
1560.2	0.0005446
1558.3	0.0006494
1556.4	0.0004937
1554.4	0.0003018
1552.5	0.0001725
1550.6	0.0000904
1548.6	0.0000665
1546.7	0.0001133
1544.8	0.0002459
1542.9	0.0004468
1540.9	0.0005986
1539.0	0.0005279
1537.1	0.0003179
1535.1	0.0002231
1533.2	0.0002117
1531.3	0.0001490
1529.4	0.0001016
1527.4	0.0001264
1525.5	0.0001869
1523.6	0.0002826
1521.6	0.0003602
1519.7	0.0003249
1517.8	0.0002221
1515.9	0.0001346
1513.9	0.0000841
1512.0	0.0000998
1510.1	0.0002462
1508.1	0.0005156
1506.2	0.0006431
1504.3	0.0004516
1502.4	0.0002068
1500.4	0.0001430
1498.5	0.0001797
1496.6	0.0001811
1494.6	0.0001315
1492.7	0.0001168
1490.8	0.0001553
1488.9	0.0001572
1486.9	0.0000968
1485.0	0.0000317
1483.1	-0.0000035
1481.1	-0.0000135
1479.2	0.0000061
1477.3	0.0000652
1475.4	0.0001410
1473.4	0.0001871
1471.5	0.0001505
1469.6	0.0000584
1467.6	0.0000205
1465.7	0.0000262
1463.8	-0.0000282
1461.9	-0.0000754
1459.9	0.0000651
1458.0	0.0003081
1456.1	0.0003446
1454.1	0.0001696
1452.2	0.0000398
1450.3	0.0000274
1448.4	0.0000452
1446.4	0.0000314
1444.5	0.0000024
1442.6	-0.0000005
1440.6	0.0000398
1438.7	0.0001297
1436.8	0.0001872
1434.9	0.0001315
1432.9	0.0000585
1431.0	0.0000542
1429.1	0.0000497
1427.1	-0.0000141
1425.2	-0.0000941
1423.3	-0.0000864
1421.4	0.0000601
1419.4	0.0001940
1417.5	0.0001575
1415.6	0.0000456
1413.6	-0.0000085
1411.7	-0.0000175
1409.8	-0.0000220
1407.9	-0.0000157
1405.9	0.0000025
1404.0	0.0000021
1402.1	-0.0000023
1400.1	0.0000201
1398.2	0.0000478
1396.3	0.0000653
1394.4	0.0000528
1392.4	-0.0000086
1390.5	-0.0000644
1388.6	-0.0000790
1386.6	-0.0000878
1384.7	-0.0000979
1382.8	-0.0000887
1380.9	-0.0000693
1378.9	-0.0000502
1377.0	-0.0000208
1375.1	0.0000085
1373.1	0.0000105
1371.2	-0.0000046
1369.3	-0.0000148
1367.4	-0.0000219
1365.4	-0.0000149
1363.5	0.0000095
1361.6	0.0000191
1359.6	0.0000059
1357.7	-0.0000033
1355.8	-0.0000032
1353.9	-0.0000109
1351.9	-0.0000282
1350.0	-0.0000443
1348.1	-0.0000527
1346.1	-0.0000501
1344.2	-0.0000374
1342.3	-0.0000159
1340.4	0.0000109
1338.4	0.0000262
1336.5	0.0000249
1334.6	0.0000184
1332.6	0.0000119
1330.7	0.0000078
1328.8	0.0000061
1326.9	0.0000043
1324.9	0.0000021
1323.0	0.0000021
1321.1	0.0000101
1319.1	0.0000219
1317.2	0.0000285
1315.3	0.0000287
1313.4	0.0000248
1311.4	0.0000178
1309.5	0.0000077
1307.6	-0.0000094
1305.6	-0.0000241
1303.7	-0.0000215
1301.8	-0.0000094
1299.9	-0.0000024
1297.9	-0.0000005
1296.0	0.0000010
1294.1	0.0000013
1292.1	0.0000005
1290.2	-0.0000007
1288.3	-0.0000032
1286.4	-0.0000045
1284.4	-0.0000023
1282.5	0.0000025
1280.6	0.0000083
1278.6	0.0000101
1276.7	0.0000091
1274.8	0.0000143
1272.9	0.0000225
1270.9	0.0000229
1269.0	0.0000226
1267.1	0.0000345
1265.1	0.0000525
1263.2	0.0000656
1261.3	0.0000757
1259.4	0.0000784
1257.4	0.0000675
1255.5	0.0000517
1253.6	0.0000380
1251.6	0.0000248
1249.7	0.0000085
1247.8	-0.0000097
1245.9	-0.0000200
1243.9	-0.0000197
1242.0	-0.0000193
1240.1	-0.0000307
1238.1	-0.0000562
1236.2	-0.0000780
1234.3	-0.0000827
1232.4	-0.0000790
1230.4	-0.0000737
1228.5	-0.0000629
1226.6	-0.0000483
1224.6	-0.0000333
1222.7	-0.0000239
1220.8	-0.0000229
1218.9	-0.0000178
1216.9	-0.0000059
1215.0	-0.0000005
1213.1	-0.0000030
1211.1	-0.0000016
1209.2	0.0000102
1207.3	0.0000215
1205.4	0.0000207
1203.4	0.0000136
1201.5	0.0000093
1199.6	0.0000074
1197.6	0.0000051
1195.7	0.0000021
1193.8	-0.0000037
1191.9	-0.0000121
1189.9	-0.0000108
1188.0	0.0000013
1186.1	-0.0000005
1184.1	-0.0000222
1182.2	-0.0000283
1180.3	0.0000053
1178.4	0.0000373
1176.4	0.0000213
1174.5	-0.0000172
1172.6	-0.0000285
1170.6	-0.0000123
1168.7	-0.0000030
1166.8	-0.0000107
1164.9	-0.0000242
1162.9	-0.0000419
1161.0	-0.0000527
1159.1	-0.0000449
1157.1	-0.0000308
1155.2	-0.0000244
1153.3	-0.0000256
1151.4	-0.0000248
1149.4	-0.0000141
1147.5	-0.0000045
1145.6	-0.0000098
1143.6	-0.0000174
1141.7	-0.0000068
1139.8	0.0000102
1137.9	0.0000086
1135.9	-0.0000083
1134.0	-0.0000281
1132.1	-0.0000474
1130.1	-0.0000560
1128.2	-0.0000469
1126.3	-0.0000266
1124.4	-0.0000093
1122.4	-0.0000124
1120.5	-0.0000335
1118.6	-0.0000455
1116.6	-0.0000391
1114.7	-0.0000292
1112.8	-0.0000222
1110.9	-0.0000140
1108.9	-0.0000107
1107.0	-0.0000172
1105.1	-0.0000258
1103.1	-0.0000300
1101.2	-0.0000219
1099.3	-0.0000004
1097.4	0.0000163
1095.4	0.0000179
1093.5	0.0000138
1091.6	0.0000048
1089.6	-0.0000071
1087.7	-0.0000033
1085.8	0.0000112
1083.9	0.0000086
1081.9	-0.0000105
1080.0	-0.0000246
1078.1	-0.0000275
1076.1	-0.0000201
1074.2	-0.0000069
1072.3	-0.0000031
1070.4	-0.0000123
1068.4	-0.0000219
1066.5	-0.0000272
1064.6	-0.0000274
1062.6	-0.0000201
1060.7	-0.0000085
1058.8	0.0000033
1056.9	0.0000070
1054.9	-0.0000034
1053.0	-0.0000113
1051.1	-0.0000038
1049.1	0.0000073
1047.2	0.0000140
1045.3	0.0000191
1043.4	0.0000204
1041.4	0.0000169
1039.5	0.0000073
1037.6	-0.0000045
1035.6	-0.0000069
1033.7	-0.0000006
1031.8	0.0000016
1029.9	-0.0000020
1027.9	-0.0000013
1026.0	0.0000078
1024.1	0.0000144
1022.1	0.0000087
1020.2	0.0000005
1018.3	-0.0000031
1016.4	-0.0000049
1014.4	-0.0000004
1012.5	0.0000097
1010.6	0.0000136
1008.6	0.0000144
1006.7	0.0000203
1004.8	0.0000204
1002.9	0.0000120
1000.9	0.0000110
999.0	0.0000210
997.1	0.0000317
995.1	0.0000435
993.2	0.0000559
991.3	0.0000577
989.4	0.0000503
987.4	0.0000504
985.5	0.0000583
983.6	0.0000560
981.6	0.0000452
979.7	0.0000389
977.8	0.0000385
975.9	0.0000419
973.9	0.0000451
972.0	0.0000452
970.1	0.0000490
968.1	0.0000555
966.2	0.0000560
964.3	0.0000532
962.4	0.0000574
960.4	0.0000620
958.5	0.0000551
956.6	0.0000451
954.6	0.0000425
952.7	0.0000483
950.8	0.0000567
948.9	0.0000523
946.9	0.0000348
945.0	0.0000217
943.1	0.0000192
941.1	0.0000245
939.2	0.0000375
937.3	0.0000576
935.4	0.0000743
933.4	0.0000681
931.5	0.0000450
929.6	0.0000279
927.6	0.0000204
925.7	0.0000142
923.8	0.0000067
921.9	0.0000037
919.9	0.0000045
918.0	-0.0000000
916.1	-0.0000069
914.1	-0.0000122
912.2	-0.0000215
910.3	-0.0000258
908.4	-0.0000137
906.4	-0.0000030
904.5	-0.0000052
902.6	-0.0000029
900.6	0.0000010
898.7	-0.0000113
896.8	-0.0000201
894.9	-0.0000058
892.9	0.0000093
891.0	0.0000105
889.1	0.0000062
887.1	-0.0000004
885.2	-0.0000077
883.3	-0.0000100
881.4	-0.0000057
879.4	-0.0000021
877.5	0.0000004
875.6	0.0000118
873.6	0.0000295
871.7	0.0000488
869.8	0.0000683
867.9	0.0000638
865.9	0.0000291
864.0	0.0000072
862.1	0.0000093
860.1	0.0000046
858.2	-0.0000119
856.3	-0.0000261
854.4	-0.0000266
852.4	-0.0000107
850.5	0.0000029
848.6	-0.0000010
846.6	0.0000006
844.7	0.0000246
842.8	0.0000448
840.9	0.0000385
838.9	0.0000068
837.0	-0.0000317
835.1	-0.0000552
833.1	-0.0000608
831.2	-0.0000574
829.3	-0.0000464
827.4	-0.0000279
825.4	-0.0000126
823.5	0.0000003
821.6	0.0000108
819.6	0.0000096
817.7	0.0000170
815.8	0.0000396
813.9	0.0000431
811.9	0.0000261
810.0	0.0000160
808.1	0.0000191
806.1	0.0000308
804.2	0.0000373
802.3	0.0000301
800.4	0.0000248
798.4	0.0000217
796.5	-0.0000041
794.6	-0.0000385
792.6	-0.0000321
790.7	0.0000072
788.8	0.0000187
786.9	0.0000035
784.9	0.0000064
783.0	0.0000306
781.1	0.0000575
779.1	0.0000574
777.2	0.0000271
775.3	0.0000315
773.4	0.0001071
771.4	0.0001636
769.5	0.0001066
767.6	0.0000084
765.6	-0.0000379
763.7	-0.0000562
761.8	-0.0000745
759.9	-0.0000750
757.9	-0.0000610
756.0	-0.0000734
754.1	-0.0001377
752.1	-0.0002051
750.2	-0.0002095
748.3	-0.0001752
746.4	-0.0001395
744.4	-0.0001024
742.5	-0.0001157
740.6	-0.0001696
738.6	-0.0001904
736.7	-0.0002241
734.8	-0.0003281
732.9	-0.0003612
730.9	-0.0001867
729.0	0.0000236
727.1	0.0000851
725.1	0.0000491
723.2	0.0000124
721.3	0.0000005
719.4	-0.0000106
717.4	0.0000199
715.5	0.0001042
713.6	0.0001509
711.6	0.0001709
709.7	0.0002517
707.8	0.0003071
705.9	0.0001237
703.9	-0.0001530
702.0	-0.0001531
700.1	0.0000506
698.1	0.0000783
696.2	-0.0001222
694.3	-0.0002472
692.4	-0.0001687
690.4	-0.0000188
688.5	0.0001321
686.6	0.0002096
684.6	0.0001497
682.7	0.0000519
680.8	-0.0000601
678.9	-0.0002736
676.9	-0.0004225
675.0	-0.0002689
673.1	0.0000171
671.1	0.0001081
669.2	-0.0000559
667.3	-0.0002358
665.4	-0.0001554
663.4	0.0001855
661.5	0.0005176
659.6	0.0004923
657.6	0.0000712
655.7	-0.0004353
653.8	-0.0008030
651.9	-0.0009615
649.9	-0.0009630
