3997.9	0.0000191
3996.0	0.0000047
3994.1	-0.0000134
3992.1	-0.0000262
3990.2	-0.0000103
3988.3	0.0000204
3986.3	0.0000244
3984.4	0.0000064
3982.5	0.0000021
3980.6	0.0000099
3978.6	0.0000069
3976.7	-0.0000067
3974.8	-0.0000141
3972.8	-0.0000073
3970.9	0.0000075
3969.0	0.0000232
3967.1	0.0000310
3965.1	0.0000263
3963.2	0.0000119
3961.3	-0.0000002
3959.3	0.0000004
3957.4	0.0000030
3955.5	0.0000009
3953.6	0.0000034
3951.6	0.0000148
3949.7	0.0000306
3947.8	0.0000353
3945.8	0.0000298
3943.9	0.0000280
3942.0	0.0000163
3940.1	-0.0000023
3938.1	-0.0000036
3936.2	0.0000016
3934.3	0.0000039
3932.3	0.0000096
3930.4	0.0000084
3928.5	-0.0000071
3926.6	-0.0000234
3924.6	-0.0000177
3922.7	0.0000140
3920.8	0.0000421
3918.8	0.0000450
3916.9	0.0000413
3915.0	0.0000557
3913.1	0.0000734
3911.1	0.0000681
3909.2	0.0000540
3907.3	0.0000442
3905.3	0.0000199
3903.4	-0.0000105
3901.5	-0.0000161
3899.6	0.0000011
3897.6	0.0000240
3895.7	0.0000372
3893.8	0.0000277
3891.8	0.0000122
3889.9	0.0000105
3888.0	-0.0000018
3886.1	-0.0000313
3884.1	-0.0000325
3882.2	0.0000028
3880.3	0.0000351
3878.3	0.0000474
3876.4	0.0000549
3874.5	0.0000676
3872.6	0.0000703
3870.6	0.0000611
3868.7	0.0000678
3866.8	0.0000942
3864.8	0.0001156
3862.9	0.0001132
3861.0	0.0000862
3859.1	0.0000615
3857.1	0.0000759
3855.2	0.0001386
3853.3	0.0002031
3851.3	0.0001910
3849.4	0.0001113
3847.5	0.0000549
3845.6	0.0000450
3843.6	0.0000448
3841.7	0.0000262
3839.8	-0.0000188
3837.8	-0.0000361
3835.9	0.0000102
3834.0	0.0000560
3832.1	0.0000598
3830.1	0.0000467
3828.2	0.0000355
3826.3	0.0000266
3824.3	0.0000070
3822.4	-0.0000167
3820.5	-0.0000239
3818.6	-0.0000415
3816.6	-0.0000673
3814.7	-0.0000457
3812.8	0.0000028
3810.8	0.0000204
3808.9	0.0000131
3807.0	0.0000122
3805.1	0.0000071
3803.1	-0.0000211
3801.2	-0.0000321
3799.3	-0.0000053
3797.3	0.0000218
3795.4	0.0000302
3793.5	0.0000222
3791.6	0.0000079
3789.6	0.0000009
3787.7	-0.0000023
3785.8	-0.0000047
3783.8	-0.0000011
3781.9	-0.0000002
3780.0	-0.0000056
3778.1	-0.0000024
3776.1	0.0000102
3774.2	0.0000113
3772.3	-0.0000094
3770.3	-0.0000277
3768.4	-0.0000197
3766.5	-0.0000031
3764.6	0.0000052
3762.6	0.0000220
3760.7	0.0000519
3758.8	0.0000659
3756.8	0.0000479
3754.9	0.0000016
3753.0	-0.0000292
3751.1	0.0000194
3749.1	0.0000880
3747.2	0.0001081
3745.3	0.0001248
3743.3	0.0001261
3741.4	0.0000686
3739.5	-0.0000118
3737.6	-0.0000580
3735.6	-0.0000527
3733.7	-0.0000347
3731.8	-0.0000263
3729.8	-0.0000077
3727.9	0.0000241
3726.0	0.0000435
3724.1	0.0000294
3722.1	0.0000055
3720.2	0.0000068
3718.3	0.0000218
3716.3	0.0000301
3714.4	0.0000548
3712.5	0.0000801
3710.6	0.0000475
3708.6	-0.0000062
3706.7	-0.0000180
3704.8	-0.0000057
3702.8	0.0000062
3700.9	0.0000107
3699.0	0.0000018
3697.1	-0.0000115
3695.1	-0.0000142
3693.2	-0.0000024
3691.3	0.0000021
3689.3	-0.0000131
3687.4	-0.0000220
3685.5	-0.0000176
3683.6	-0.0000178
3681.6	-0.0000193
3679.7	-0.0000211
3677.8	-0.0000127
3675.8	0.0000316
3673.9	0.0000814
3672.0	0.0000825
3670.1	0.0000392
3668.1	0.0000034
3666.2	0.0000041
3664.3	0.0000175
3662.3	0.0000180
3660.4	0.0000175
3658.5	0.0000369
3656.6	0.0000552
3654.6	0.0000508
3652.7	0.0000462
3650.8	0.0000454
3648.8	0.0000317
3646.9	0.0000129
3645.0	0.0000033
3643.1	0.0000041
3641.1	0.0000006
3639.2	-0.0000143
3637.3	-0.0000271
3635.3	-0.0000250
3633.4	-0.0000008
3631.5	0.0000313
3629.6	0.0000320
3627.6	0.0000006
3625.7	-0.0000172
3623.8	-0.0000171
3621.8	-0.0000241
3619.9	-0.0000241
3618.0	-0.0000037
3616.1	0.0000155
3614.1	0.0000283
3612.2	0.0000422
3610.3	0.0000434
3608.3	0.0000258
3606.4	0.0000009
3604.5	-0.0000177
3602.6	-0.0000212
3600.6	-0.0000153
3598.7	-0.0000122
3596.8	-0.0000164
3594.8	-0.0000149
3592.9	-0.0000100
3591.0	-0.0000214
3589.1	-0.0000289
3587.1	-0.0000142
3585.2	-0.0000063
3583.3	-0.0000139
3581.3	-0.0000136
3579.4	-0.0000026
3577.5	0.0000068
3575.6	0.0000146
3573.6	0.0000218
3571.7	0.0000210
3569.8	0.0000153
3567.8	0.0000138
3565.9	0.0000081
3564.0	-0.0000016
3562.1	0.0000010
3560.1	0.0000089
3558.2	0.0000084
3556.3	0.0000075
3554.3	0.0000109
3552.4	0.0000133
3550.5	0.0000185
3548.6	0.0000299
3546.6	0.0000322
3544.7	0.0000216
3542.8	0.0000139
3540.8	0.0000115
3538.9	0.0000070
3537.0	0.0000032
3535.1	0.0000083
3533.1	0.0000229
3531.2	0.0000321
3529.3	0.0000211
3527.3	-0.0000014
3525.4	-0.0000117
3523.5	-0.0000026
3521.6	0.0000028
3519.6	-0.0000100
3517.7	-0.0000166
3515.8	0.0000019
3513.8	0.0000263
3511.9	0.0000329
3510.0	0.0000275
3508.1	0.0000274
3506.1	0.0000336
3504.2	0.0000423
3502.3	0.0000496
3500.3	0.0000537
3498.4	0.0000520
3496.5	0.0000362
3494.6	0.0000209
3492.6	0.0000193
3490.7	0.0000140
3488.8	0.0000104
3486.8	0.0000297
3484.9	0.0000585
3483.0	0.0000694
3481.1	0.0000584
3479.1	0.0000457
3477.2	0.0000405
3475.3	0.0000302
3473.3	0.0000181
3471.4	0.0000216
3469.5	0.0000385
3467.6	0.0000557
3465.6	0.0000618
3463.7	0.0000509
3461.8	0.0000400
3459.8	0.0000467
3457.9	0.0000563
3456.0	0.0000522
3454.1	0.0000429
3452.1	0.0000442
3450.2	0.0000624
3448.3	0.0000836
3446.3	0.0000914
3444.4	0.0000910
3442.5	0.0000880
3440.6	0.0000802
3438.6	0.0000756
3436.7	0.0000786
3434.8	0.0000808
3432.8	0.0000795
3430.9	0.0000827
3429.0	0.0000919
3427.1	0.0000945
3425.1	0.0000847
3423.2	0.0000746
3421.3	0.0000743
3419.3	0.0000831
3417.4	0.0000899
3415.5	0.0000836
3413.6	0.0000694
3411.6	0.0000652
3409.7	0.0000732
3407.8	0.0000775
3405.8	0.0000803
3403.9	0.0000912
3402.0	0.0000995
3400.1	0.0000987
3398.1	0.0000981
3396.2	0.0001063
3394.3	0.0001135
3392.3	0.0001032
3390.4	0.0000876
3388.5	0.0000841
3386.6	0.0000815
3384.6	0.0000713
3382.7	0.0000681
3380.8	0.0000778
3378.8	0.0000911
3376.9	0.0001043
3375.0	0.0001209
3373.1	0.0001308
3371.1	0.0001206
3369.2	0.0001045
3367.3	0.0000981
3365.3	0.0000951
3363.4	0.0000871
3361.5	0.0000790
3359.6	0.0000834
3357.6	0.0000913
3355.7	0.0000829
3353.8	0.0000734
3351.8	0.0000836
3349.9	0.0001029
3348.0	0.0001130
3346.1	0.0001078
3344.1	0.0000992
3342.2	0.0000978
3340.3	0.0000961
3338.3	0.0000919
3336.4	0.0000914
3334.5	0.0000976
3332.6	0.0001088
3330.6	0.0001128
3328.7	0.0001092
3326.8	0.0001086
3324.8	0.0000990
3322.9	0.0000780
3321.0	0.0000699
3319.1	0.0000786
3317.1	0.0000883
3315.2	0.0000913
3313.3	0.0000861
3311.3	0.0000796
3309.4	0.0000841
3307.5	0.0000983
3305.6	0.0001090
3303.6	0.0001144
3301.7	0.0001219
3299.8	0.0001345
3297.8	0.0001457
3295.9	0.0001475
3294.0	0.0001441
3292.1	0.0001403
3290.1	0.0001292
3288.2	0.0001164
3286.3	0.0001137
3284.3	0.0001163
3282.4	0.0001203
3280.5	0.0001241
3278.6	0.0001276
3276.6	0.0001374
3274.7	0.0001526
3272.8	0.0001591
3270.8	0.0001536
3268.9	0.0001473
3267.0	0.0001382
3265.1	0.0001276
3263.1	0.0001309
3261.2	0.0001410
3259.3	0.0001442
3257.3	0.0001472
3255.4	0.0001521
3253.5	0.0001512
3251.6	0.0001441
3249.6	0.0001357
3247.7	0.0001342
3245.8	0.0001459
3243.8	0.0001595
3241.9	0.0001635
3240.0	0.0001635
3238.1	0.0001637
3236.1	0.0001603
3234.2	0.0001527
3232.3	0.0001460
3230.3	0.0001444
3228.4	0.0001480
3226.5	0.0001503
3224.6	0.0001475
3222.6	0.0001477
3220.7	0.0001577
3218.8	0.0001696
3216.8	0.0001749
3214.9	0.0001715
3213.0	0.0001625
3211.1	0.0001577
3209.1	0.0001624
3207.2	0.0001702
3205.3	0.0001673
3203.3	0.0001476
3201.4	0.0001266
3199.5	0.0001214
3197.6	0.0001268
3195.6	0.0001304
3193.7	0.0001284
3191.8	0.0001254
3189.8	0.0001260
3187.9	0.0001277
3186.0	0.0001287
3184.1	0.0001297
3182.1	0.0001265
3180.2	0.0001229
3178.3	0.0001252
3176.3	0.0001261
3174.4	0.0001250
3172.5	0.0001262
3170.6	0.0001233
3168.6	0.0001147
3166.7	0.0001079
3164.8	0.0000998
3162.8	0.0000901
3160.9	0.0000903
3159.0	0.0000974
3157.1	0.0001053
3155.1	0.0001191
3153.2	0.0001248
3151.3	0.0001107
3149.3	0.0000950
3147.4	0.0000913
3145.5	0.0000895
3143.6	0.0000759
3141.6	0.0000562
3139.7	0.0000520
3137.8	0.0000665
3135.8	0.0000796
3133.9	0.0000827
3132.0	0.0000837
3130.1	0.0000828
3128.1	0.0000770
3126.2	0.0000701
3124.3	0.0000626
3122.3	0.0000562
3120.4	0.0000555
3118.5	0.0000594
3116.6	0.0000639
3114.6	0.0000670
3112.7	0.0000660
3110.8	0.0000605
3108.8	0.0000537
3106.9	0.0000472
3105.0	0.0000424
3103.1	0.0000419
3101.1	0.0000451
3099.2	0.0000455
3097.3	0.0000338
3095.3	0.0000235
3093.4	0.0000347
3091.5	0.0000544
3089.6	0.0000603
3087.6	0.0000510
3085.7	0.0000400
3083.8	0.0000344
3081.8	0.0000322
3079.9	0.0000348
3078.0	0.0000364
3076.1	0.0000348
3074.1	0.0000344
3072.2	0.0000285
3070.3	0.0000159
3068.3	0.0000109
3066.4	0.0000168
3064.5	0.0000230
3062.6	0.0000223
3060.6	0.0000113
3058.7	-0.0000016
3056.8	0.0000016
3054.8	0.0000205
3052.9	0.0000376
3051.0	0.0000422
3049.1	0.0000397
3047.1	0.0000372
3045.2	0.0000355
3043.3	0.0000366
3041.3	0.0000375
3039.4	0.0000340
3037.5	0.0000303
3035.6	0.0000308
3033.6	0.0000320
3031.7	0.0000289
3029.8	0.0000206
3027.8	0.0000149
3025.9	0.0000161
3024.0	0.0000194
3022.1	0.0000161
3020.1	-0.0000029
3018.2	-0.0000274
3016.3	-0.0000312
3014.3	-0.0000143
3012.4	-0.0000004
3010.5	0.0000055
3008.6	0.0000109
3006.6	0.0000149
3004.7	0.0000172
3002.8	0.0000196
3000.8	0.0000199
2998.9	0.0000191
2997.0	0.0000238
2995.1	0.0000331
2993.1	0.0000339
2991.2	0.0000274
2989.3	0.0000271
2987.3	0.0000287
2985.4	0.0000283
2983.5	0.0000333
2981.6	0.0000403
2979.6	0.0000402
2977.7	0.0000380
2975.8	0.0000409
2973.8	0.0000444
2971.9	0.0000449
2970.0	0.0000453
2968.1	0.0000446
2966.1	0.0000406
2964.2	0.0000418
2962.3	0.0000567
2960.3	0.0000825
2958.4	0.0001080
2956.5	0.0001213
2954.6	0.0001236
2952.6	0.0001206
2950.7	0.0001110
2948.8	0.0000992
2946.8	0.0000947
2944.9	0.0000953
2943.0	0.0000920
2941.1	0.0000892
2939.1	0.0000889
2937.2	0.0000803
2935.3	0.0000670
2933.3	0.0000622
2931.4	0.0000625
2929.5	0.0000608
2927.6	0.0000602
2925.6	0.0000604
2923.7	0.0000562
2921.8	0.0000555
2919.8	0.0000656
2917.9	0.0000745
2916.0	0.0000744
2914.1	0.0000725
2912.1	0.0000753
2910.2	0.0000812
2908.3	0.0000834
2906.3	0.0000794
2904.4	0.0000745
2902.5	0.0000722
2900.6	0.0000667
2898.6	0.0000530
2896.7	0.0000360
2894.8	0.0000229
2892.8	0.0000165
2890.9	0.0000190
2889.0	0.0000270
2887.1	0.0000313
2885.1	0.0000305
2883.2	0.0000288
2881.3	0.0000280
2879.3	0.0000272
2877.4	0.0000215
2875.5	0.0000127
2873.6	0.0000100
2871.6	0.0000136
2869.7	0.0000171
2867.8	0.0000175
2865.8	0.0000166
2863.9	0.0000176
2862.0	0.0000202
2860.1	0.0000249
2858.1	0.0000302
2856.2	0.0000290
2854.3	0.0000262
2852.3	0.0000334
2850.4	0.0000453
2848.5	0.0000517
2846.6	0.0000551
2844.6	0.0000587
2842.7	0.0000594
2840.8	0.0000533
2838.8	0.0000407
2836.9	0.0000272
2835.0	0.0000195
2833.1	0.0000184
2831.1	0.0000165
2829.2	0.0000120
2827.3	0.0000112
2825.3	0.0000098
2823.4	0.0000049
2821.5	0.0000055
2819.6	0.0000102
2817.6	0.0000111
2815.7	0.0000105
2813.8	0.0000146
2811.8	0.0000181
2809.9	0.0000125
2808.0	0.0000032
2806.1	0.0000006
2804.1	0.0000053
2802.2	0.0000100
2800.3	0.0000075
2798.3	0.0000006
2796.4	-0.0000006
2794.5	0.0000058
2792.6	0.0000133
2790.6	0.0000157
2788.7	0.0000141
2786.8	0.0000120
2784.8	0.0000088
2782.9	0.0000076
2781.0	0.0000120
2779.1	0.0000135
2777.1	0.0000049
2775.2	-0.0000022
2773.3	0.0000000
2771.3	0.0000045
2769.4	0.0000071
2767.5	0.0000074
2765.6	0.0000032
2763.6	0.0000012
2761.7	0.0000057
2759.8	0.0000083
2757.8	0.0000066
2755.9	0.0000026
2754.0	-0.0000034
2752.1	-0.0000066
2750.1	-0.0000039
2748.2	0.0000024
2746.3	0.0000103
2744.3	0.0000174
2742.4	0.0000206
2740.5	0.0000176
2738.6	0.0000130
2736.6	0.0000109
2734.7	0.0000054
2732.8	-0.0000058
2730.8	-0.0000122
2728.9	-0.0000085
2727.0	-0.0000039
2725.1	-0.0000057
2723.1	-0.0000065
2721.2	-0.0000008
2719.3	0.0000051
2717.3	0.0000092
2715.4	0.0000085
2713.5	-0.0000016
2711.6	-0.0000098
2709.6	-0.0000057
2707.7	0.0000041
2705.8	0.0000112
2703.8	0.0000102
2701.9	0.0000002
2700.0	-0.0000103
2698.1	-0.0000093
2696.1	0.0000011
2694.2	0.0000076
2692.3	0.0000043
2690.3	-0.0000030
2688.4	-0.0000089
2686.5	-0.0000142
2684.6	-0.0000176
2682.6	-0.0000162
2680.7	-0.0000103
2678.8	-0.0000005
2676.8	0.0000100
2674.9	0.0000165
2673.0	0.0000162
2671.1	0.0000080
2669.1	-0.0000016
2667.2	-0.0000040
2665.3	-0.0000015
2663.3	0.0000016
2661.4	0.0000043
2659.5	0.0000073
2657.6	0.0000134
2655.6	0.0000191
2653.7	0.0000175
2651.8	0.0000134
2649.8	0.0000134
2647.9	0.0000117
2646.0	0.0000059
2644.1	0.0000041
2642.1	0.0000051
2640.2	0.0000013
2638.3	0.0000005
2636.3	0.0000093
2634.4	0.0000169
2632.5	0.0000165
2630.6	0.0000124
2628.6	0.0000096
2626.7	0.0000131
2624.8	0.0000213
2622.8	0.0000239
2620.9	0.0000184
2619.0	0.0000124
2617.1	0.0000085
2615.1	0.0000078
2613.2	0.0000122
2611.3	0.0000148
2609.3	0.0000125
2607.4	0.0000074
2605.5	0.0000006
2603.6	-0.0000036
2601.6	-0.0000051
2599.7	-0.0000058
2597.8	-0.0000036
2595.8	-0.0000005
2593.9	-0.0000021
2592.0	-0.0000069
2590.1	-0.0000075
2588.1	0.0000002
2586.2	0.0000113
2584.3	0.0000151
2582.3	0.0000091
2580.4	0.0000009
2578.5	-0.0000035
2576.6	-0.0000040
2574.6	0.0000004
2572.7	0.0000090
2570.8	0.0000151
2568.8	0.0000152
2566.9	0.0000126
2565.0	0.0000074
2563.1	0.0000036
2561.1	0.0000137
2559.2	0.0000316
2557.3	0.0000338
2555.3	0.0000202
2553.4	0.0000089
2551.5	0.0000027
2549.6	-0.0000014
2547.6	-0.0000030
2545.7	-0.0000014
2543.8	0.0000045
2541.8	0.0000135
2539.9	0.0000197
2538.0	0.0000193
2536.1	0.0000136
2534.1	0.0000093
2532.2	0.0000099
2530.3	0.0000164
2528.3	0.0000234
2526.4	0.0000191
2524.5	0.0000062
2522.6	0.0000015
2520.6	0.0000069
2518.7	0.0000104
2516.8	0.0000111
2514.8	0.0000118
2512.9	0.0000085
2511.0	0.0000044
2509.1	0.0000073
2507.1	0.0000149
2505.2	0.0000201
2503.3	0.0000216
2501.3	0.0000215
2499.4	0.0000220
2497.5	0.0000248
2495.6	0.0000275
2493.6	0.0000256
2491.7	0.0000187
2489.8	0.0000152
2487.8	0.0000183
2485.9	0.0000189
2484.0	0.0000152
2482.1	0.0000133
2480.1	0.0000112
2478.2	0.0000083
2476.3	0.0000070
2474.3	0.0000029
2472.4	-0.0000020
2470.5	0.0000026
2468.6	0.0000156
2466.6	0.0000219
2464.7	0.0000164
2462.8	0.0000105
2460.8	0.0000105
2458.9	0.0000156
2457.0	0.0000219
2455.1	0.0000209
2453.1	0.0000135
2451.2	0.0000083
2449.3	0.0000061
2447.3	0.0000049
2445.4	0.0000056
2443.5	0.0000083
2441.6	0.0000090
2439.6	0.0000051
2437.7	0.0000013
2435.8	0.0000020
2433.8	0.0000053
2431.9	0.0000095
2430.0	0.0000127
2428.1	0.0000140
2426.1	0.0000156
2424.2	0.0000151
2422.3	0.0000131
2420.3	0.0000146
2418.4	0.0000168
2416.5	0.0000166
2414.6	0.0000172
2412.6	0.0000206
2410.7	0.0000239
2408.8	0.0000182
2406.8	0.0000034
2404.9	-0.0000048
2403.0	0.0000006
2401.1	0.0000081
2399.1	0.0000136
2397.2	0.0000188
2395.3	0.0000176
2393.3	0.0000128
2391.4	0.0000157
2389.5	0.0000234
2387.6	0.0000276
2385.6	0.0000250
2383.7	0.0000194
2381.8	0.0000152
2379.8	0.0000102
2377.9	0.0000047
2376.0	0.0000049
2374.1	0.0000076
2372.1	0.0000058
2370.2	-0.0000014
2368.3	-0.0000089
2366.3	-0.0000084
2364.4	-0.0000014
2362.5	0.0000021
2360.6	0.0000025
2358.6	0.0000051
2356.7	0.0000063
2354.8	0.0000058
2352.8	0.0000075
2350.9	0.0000085
2349.0	0.0000030
2347.1	-0.0000048
2345.1	-0.0000066
2343.2	-0.0000056
2341.3	-0.0000039
2339.3	0.0000065
2337.4	0.0000184
2335.5	0.0000171
2333.6	0.0000082
2331.6	0.0000022
2329.7	0.0000010
2327.8	0.0000010
2325.8	-0.0000073
2323.9	-0.0000193
2322.0	-0.0000200
2320.1	-0.0000089
2318.1	0.0000053
2316.2	0.0000134
2314.3	0.0000122
2312.3	0.0000090
2310.4	0.0000079
2308.5	0.0000078
2306.6	0.0000093
2304.6	0.0000121
2302.7	0.0000131
2300.8	0.0000083
2298.8	0.0000043
2296.9	0.0000145
2295.0	0.0000297
2293.1	0.0000285
2291.1	0.0000207
2289.2	0.0000236
2287.3	0.0000260
2285.3	0.0000186
2283.4	0.0000107
2281.5	0.0000083
2279.6	0.0000074
2277.6	0.0000052
2275.7	0.0000066
2273.8	0.0000134
2271.8	0.0000156
2269.9	0.0000133
2268.0	0.0000171
2266.1	0.0000238
2264.1	0.0000250
2262.2	0.0000238
2260.3	0.0000206
2258.3	0.0000139
2256.4	0.0000099
2254.5	0.0000074
2252.6	0.0000053
2250.6	0.0000121
2248.7	0.0000235
2246.8	0.0000270
2244.8	0.0000265
2242.9	0.0000306
2241.0	0.0000310
2239.1	0.0000218
2237.1	0.0000128
2235.2	0.0000147
2233.3	0.0000234
2231.3	0.0000268
2229.4	0.0000217
2227.5	0.0000158
2225.6	0.0000147
2223.6	0.0000173
2221.7	0.0000187
2219.8	0.0000156
2217.8	0.0000138
2215.9	0.0000193
2214.0	0.0000209
2212.1	0.0000113
2210.1	0.0000017
2208.2	-0.0000006
2206.3	0.0000001
2204.3	-0.0000005
2202.4	-0.0000018
2200.5	0.0000035
2198.6	0.0000114
2196.6	0.0000083
2194.7	-0.0000018
2192.8	-0.0000016
2190.8	0.0000091
2188.9	0.0000127
2187.0	0.0000059
2185.1	0.0000031
2183.1	0.0000043
2181.2	-0.0000029
2179.3	-0.0000120
2177.3	-0.0000089
2175.4	0.0000011
2173.5	0.0000067
2171.6	0.0000083
2169.6	0.0000102
2167.7	0.0000098
2165.8	0.0000050
2163.8	0.0000031
2161.9	0.0000066
2160.0	0.0000096
2158.1	0.0000111
2156.1	0.0000130
2154.2	0.0000151
2152.3	0.0000187
2150.3	0.0000229
2148.4	0.0000239
2146.5	0.0000212
2144.6	0.0000202
2142.6	0.0000237
2140.7	0.0000242
2138.8	0.0000186
2136.8	0.0000161
2134.9	0.0000184
2133.0	0.0000172
2131.1	0.0000117
2129.1	0.0000064
2127.2	0.0000048
2125.3	0.0000060
2123.3	0.0000058
2121.4	0.0000042
2119.5	0.0000019
2117.6	0.0000033
2115.6	0.0000139
2113.7	0.0000240
2111.8	0.0000217
2109.8	0.0000132
2107.9	0.0000109
2106.0	0.0000144
2104.1	0.0000181
2102.1	0.0000164
2100.2	0.0000083
2098.3	0.0000043
2096.3	0.0000055
2094.4	-0.0000003
2092.5	-0.0000114
2090.6	-0.0000199
2088.6	-0.0000367
2086.7	-0.0000714
2084.8	-0.0001106
2082.8	-0.0001323
2080.9	-0.0001315
2079.0	-0.0001195
2077.1	-0.0001065
2075.1	-0.0001005
2073.2	-0.0001075
2071.3	-0.0001180
2069.3	-0.0001226
2067.4	-0.0001267
2065.5	-0.0001304
2063.6	-0.0001275
2061.6	-0.0001204
2059.7	-0.0001147
2057.8	-0.0001095
2055.8	-0.0000990
2053.9	-0.0000852
2052.0	-0.0000757
2050.1	-0.0000641
2048.1	-0.0000390
2046.2	-0.0000047
2044.3	0.0000266
2042.3	0.0000489
2040.4	0.0000692
2038.5	0.0000959
2036.6	0.0001211
2034.6	0.0001375
2032.7	0.0001538
2030.8	0.0001743
2028.8	0.0001908
2026.9	0.0001998
2025.0	0.0002081
2023.1	0.0002206
2021.1	0.0002313
2019.2	0.0002348
2017.3	0.0002358
2015.3	0.0002394
2013.4	0.0002469
2011.5	0.0002540
2009.6	0.0002483
2007.6	0.0002297
2005.7	0.0002156
2003.8	0.0002135
2001.8	0.0002158
1999.9	0.0002143
1998.0	0.0002083
1996.1	0.0002000
1994.1	0.0001909
1992.2	0.0001834
1990.3	0.0001772
1988.3	0.0001689
1986.4	0.0001585
1984.5	0.0001486
1982.6	0.0001376
1980.6	0.0001241
1978.7	0.0001158
1976.8	0.0001123
1974.8	0.0000980
1972.9	0.0000711
1971.0	0.0000518
1969.1	0.0000477
1967.1	0.0000474
1965.2	0.0000463
1963.3	0.0000453
1961.4	0.0000420
1959.4	0.0000396
1957.5	0.0000388
1955.6	0.0000306
1953.6	0.0000207
1951.7	0.0000212
1949.8	0.0000257
1947.9	0.0000250
1945.9	0.0000227
1944.0	0.0000268
1942.1	0.0000387
1940.1	0.0000503
1938.2	0.0000521
1936.3	0.0000412
1934.4	0.0000268
1932.4	0.0000216
1930.5	0.0000244
1928.6	0.0000242
1926.6	0.0000204
1924.7	0.0000213
1922.8	0.0000260
1920.9	0.0000276
1918.9	0.0000247
1917.0	0.0000200
1915.1	0.0000174
1913.1	0.0000173
1911.2	0.0000161
1909.3	0.0000146
1907.4	0.0000155
1905.4	0.0000156
1903.5	0.0000112
1901.6	0.0000053
1899.6	0.0000067
1897.7	0.0000129
1895.8	0.0000117
1893.9	0.0000063
1891.9	0.0000078
1890.0	0.0000140
1888.1	0.0000169
1886.1	0.0000139
1884.2	0.0000057
1882.3	0.0000015
1880.4	0.0000087
1878.4	0.0000174
1876.5	0.0000152
1874.6	0.0000063
1872.6	0.0000044
1870.7	0.0000147
1868.8	0.0000246
1866.9	0.0000244
1864.9	0.0000218
1863.0	0.0000221
1861.1	0.0000238
1859.1	0.0000282
1857.2	0.0000335
1855.3	0.0000374
1853.4	0.0000399
1851.4	0.0000412
1849.5	0.0000426
1847.6	0.0000513
1845.6	0.0000706
1843.7	0.0000839
1841.8	0.0000825
1839.9	0.0000821
1837.9	0.0000877
1836.0	0.0000889
1834.1	0.0000870
1832.1	0.0000913
1830.2	0.0000985
1828.3	0.0001050
1826.4	0.0001166
1824.4	0.0001309
1822.5	0.0001387
1820.6	0.0001408
1818.6	0.0001413
1816.7	0.0001397
1814.8	0.0001363
1812.9	0.0001356
1810.9	0.0001410
1809.0	0.0001472
1807.1	0.0001447
1805.1	0.0001356
1803.2	0.0001308
1801.3	0.0001295
1799.4	0.0001248
1797.4	0.0001180
1795.5	0.0001103
1793.6	0.0000985
1791.6	0.0000870
1789.7	0.0000828
1787.8	0.0000865
1785.9	0.0000939
1783.9	0.0000972
1782.0	0.0000912
1780.1	0.0000780
1778.1	0.0000651
1776.2	0.0000657
1774.3	0.0000807
1772.4	0.0000831
1770.4	0.0000563
1768.5	0.0000311
1766.6	0.0000285
1764.6	0.0000303
1762.7	0.0000278
1760.8	0.0000262
1758.9	0.0000232
1756.9	0.0000222
1755.0	0.0000314
1753.1	0.0000379
1751.1	0.0000244
1749.2	0.0000058
1747.3	0.0000069
1745.4	0.0000195
1743.4	0.0000214
1741.5	0.0000122
1739.6	0.0000041
1737.6	0.0000078
1735.7	0.0000246
1733.8	0.0000376
1731.9	0.0000341
1729.9	0.0000252
1728.0	0.0000235
1726.1	0.0000293
1724.1	0.0000353
1722.2	0.0000375
1720.3	0.0000497
1718.4	0.0000762
1716.4	0.0000850
1714.5	0.0000643
1712.6	0.0000447
1710.6	0.0000376
1708.7	0.0000331
1706.8	0.0000351
1704.9	0.0000416
1702.9	0.0000359
1701.0	0.0000192
1699.1	0.0000013
1697.1	-0.0000130
1695.2	-0.0000075
1693.3	0.0000125
1691.4	0.0000212
1689.4	0.0000229
1687.5	0.0000413
1685.6	0.0000664
1683.6	0.0000603
1681.7	0.0000291
1679.8	0.0000131
1677.9	0.0000179
1675.9	0.0000259
1674.0	0.0000270
1672.1	0.0000237
1670.1	0.0000230
1668.2	0.0000283
1666.3	0.0000384
1664.4	0.0000476
1662.4	0.0000550
1660.5	0.0000659
1658.6	0.0000762
1656.6	0.0000929
1654.7	0.0001357
1652.8	0.0001691
1650.9	0.0001507
1648.9	0.0001265
1647.0	0.0001271
1645.1	0.0001182
1643.1	0.0000940
1641.2	0.0000750
1639.3	0.0000587
1637.4	0.0000411
1635.4	0.0000342
1633.5	0.0000436
1631.6	0.0000581
1629.6	0.0000680
1627.7	0.0000734
1625.8	0.0000768
1623.9	0.0000861
1621.9	0.0001056
1620.0	0.0001320
1618.1	0.0001591
1616.1	0.0001667
1614.2	0.0001513
1612.3	0.0001388
1610.4	0.0001385
1608.4	0.0001438
1606.5	0.0001482
1604.6	0.0001448
1602.6	0.0001376
1600.7	0.0001388
1598.8	0.0001527
1596.9	0.0001648
1594.9	0.0001571
1593.0	0.0001356
1591.1	0.0001199
1589.1	0.0001130
1587.2	0.0001082
1585.3	0.0001041
1583.4	0.0001032
1581.4	0.0001073
1579.5	0.0001222
1577.6	0.0001484
1575.6	0.0001578
1573.7	0.0001346
1571.8	0.0001111
1569.9	0.0001034
1567.9	0.0000957
1566.0	0.0000867
1564.1	0.0000768
1562.1	0.0000566
1560.2	0.0000463
1558.3	0.0000687
1556.4	0.0000992
1554.4	0.0001080
1552.5	0.0000934
1550.6	0.0000710
1548.6	0.0000577
1546.7	0.0000577
1544.8	0.0000692
1542.9	0.0000812
1540.9	0.0000705
1539.0	0.0000433
1537.1	0.0000358
1535.1	0.0000542
1533.2	0.0000689
1531.3	0.0000664
1529.4	0.0000614
1527.4	0.0000637
1525.5	0.0000645
1523.6	0.0000567
1521.6	0.0000539
1519.7	0.0000661
1517.8	0.0000763
1515.9	0.0000725
1513.9	0.0000735
1512.0	0.0001047
1510.1	0.0001843
1508.1	0.0003019
1506.2	0.0003825
1504.3	0.0003606
1502.4	0.0002746
1500.4	0.0001928
1498.5	0.0001313
1496.6	0.0000899
1494.6	0.0000690
1492.7	0.0000544
1490.8	0.0000375
1488.9	0.0000183
1486.9	-0.0000008
1485.0	-0.0000143
1483.1	-0.0000231
1481.1	-0.0000292
1479.2	-0.0000223
1477.3	-0.0000034
1475.4	0.0000094
1473.4	0.0000223
1471.5	0.0000456
1469.6	0.0000642
1467.6	0.0000726
1465.7	0.0000652
1463.8	0.0000349
1461.9	0.0000179
1459.9	0.0000564
1458.0	0.0001262
1456.1	0.0001600
1454.1	0.0001347
1452.2	0.0000907
1450.3	0.0000687
1448.4	0.0000663
1446.4	0.0000610
1444.5	0.0000504
1442.6	0.0000471
1440.6	0.0000493
1438.7	0.0000481
1436.8	0.0000473
1434.9	0.0000508
1432.9	0.0000555
1431.0	0.0000551
1429.1	0.0000366
1427.1	0.0000004
1425.2	-0.0000332
1423.3	-0.0000349
1421.4	0.0000055
1419.4	0.0000441
1417.5	0.0000459
1415.6	0.0000312
1413.6	0.0000151
1411.7	-0.0000058
1409.8	-0.0000221
1407.9	-0.0000239
1405.9	-0.0000170
1404.0	-0.0000136
1402.1	-0.0000160
1400.1	-0.0000211
1398.2	-0.0000252
1396.3	-0.0000258
1394.4	-0.0000309
1392.4	-0.0000494
1390.5	-0.0000770
1388.6	-0.0000993
1386.6	-0.0000974
1384.7	-0.0000731
1382.8	-0.0000505
1380.9	-0.0000412
1378.9	-0.0000368
1377.0	-0.0000271
1375.1	-0.0000129
1373.1	-0.0000009
1371.2	0.0000091
1369.3	0.0000150
1367.4	0.0000119
1365.4	0.0000040
1363.5	-0.0000019
1361.6	-0.0000029
1359.6	0.0000032
1357.7	0.0000110
1355.8	0.0000081
1353.9	-0.0000027
1351.9	-0.0000123
1350.0	-0.0000252
1348.1	-0.0000397
1346.1	-0.0000410
1344.2	-0.0000270
1342.3	-0.0000128
1340.4	-0.0000081
1338.4	-0.0000049
1336.5	0.0000060
1334.6	0.0000183
1332.6	0.0000227
1330.7	0.0000195
1328.8	0.0000130
1326.9	0.0000094
1324.9	0.0000113
1323.0	0.0000125
1321.1	0.0000134
1319.1	0.0000164
1317.2	0.0000201
1315.3	0.0000211
1313.4	0.0000173
1311.4	0.0000152
1309.5	0.0000139
1307.6	0.0000054
1305.6	0.0000014
1303.7	0.0000109
1301.8	0.0000218
1299.9	0.0000267
1297.9	0.0000259
1296.0	0.0000218
1294.1	0.0000225
1292.1	0.0000296
1290.2	0.0000347
1288.3	0.0000351
1286.4	0.0000345
1284.4	0.0000354
1282.5	0.0000384
1280.6	0.0000459
1278.6	0.0000540
1276.7	0.0000555
1274.8	0.0000601
1272.9	0.0000813
1270.9	0.0001153
1269.0	0.0001583
1267.1	0.0002044
1265.1	0.0002343
1263.2	0.0002404
1261.3	0.0002370
1259.4	0.0002227
1257.4	0.0001836
1255.5	0.0001312
1253.6	0.0000863
1251.6	0.0000586
1249.7	0.0000490
1247.8	0.0000475
1245.9	0.0000479
1243.9	0.0000491
1242.0	0.0000491
1240.1	0.0000427
1238.1	0.0000251
1236.2	0.0000025
1234.3	-0.0000147
1232.4	-0.0000213
1230.4	-0.0000177
1228.5	-0.0000057
1226.6	0.0000129
1224.6	0.0000311
1222.7	0.0000415
1220.8	0.0000439
1218.9	0.0000438
1216.9	0.0000460
1215.0	0.0000514
1213.1	0.0000586
1211.1	0.0000696
1209.2	0.0000823
1207.3	0.0000833
1205.4	0.0000704
1203.4	0.0000591
1201.5	0.0000554
1199.6	0.0000508
1197.6	0.0000420
1195.7	0.0000307
1193.8	0.0000133
1191.9	-0.0000026
1189.9	-0.0000024
1188.0	0.0000067
1186.1	0.0000065
1184.1	0.0000018
1182.2	0.0000192
1180.3	0.0000583
1178.4	0.0000682
1176.4	0.0000228
1174.5	-0.0000312
1172.6	-0.0000458
1170.6	-0.0000273
1168.7	-0.0000064
1166.8	0.0000002
1164.9	-0.0000109
1162.9	-0.0000310
1161.0	-0.0000416
1159.1	-0.0000391
1157.1	-0.0000299
1155.2	-0.0000164
1153.3	-0.0000067
1151.4	-0.0000029
1149.4	0.0000038
1147.5	0.0000121
1145.6	0.0000119
1143.6	0.0000070
1141.7	0.0000083
1139.8	0.0000085
1137.9	0.0000014
1135.9	-0.0000066
1134.0	-0.0000149
1132.1	-0.0000235
1130.1	-0.0000268
1128.2	-0.0000303
1126.3	-0.0000346
1124.4	-0.0000305
1122.4	-0.0000279
1120.5	-0.0000351
1118.6	-0.0000346
1116.6	-0.0000197
1114.7	-0.0000041
1112.8	0.0000117
1110.9	0.0000329
1108.9	0.0000412
1107.0	0.0000302
1105.1	0.0000159
1103.1	-0.0000019
1101.2	-0.0000179
1099.3	-0.0000173
1097.4	-0.0000106
1095.4	-0.0000041
1093.5	0.0000104
1091.6	0.0000161
1089.6	0.0000006
1087.7	-0.0000113
1085.8	-0.0000093
1083.9	-0.0000093
1081.9	-0.0000202
1080.0	-0.0000413
1078.1	-0.0000586
1076.1	-0.0000572
1074.2	-0.0000448
1072.3	-0.0000401
1070.4	-0.0000483
1068.4	-0.0000584
1066.5	-0.0000626
1064.6	-0.0000632
1062.6	-0.0000623
1060.7	-0.0000568
1058.8	-0.0000464
1056.9	-0.0000378
1054.9	-0.0000335
1053.0	-0.0000221
1051.1	-0.0000043
1049.1	0.0000068
1047.2	0.0000162
1045.3	0.0000272
1043.4	0.0000254
1041.4	0.0000094
1039.5	-0.0000041
1037.6	-0.0000079
1035.6	-0.0000032
1033.7	0.0000066
1031.8	0.0000116
1029.9	0.0000108
1027.9	0.0000133
1026.0	0.0000206
1024.1	0.0000231
1022.1	0.0000100
1020.2	-0.0000101
1018.3	-0.0000204
1016.4	-0.0000192
1014.4	-0.0000110
1012.5	-0.0000034
1010.6	-0.0000090
1008.6	-0.0000215
1006.7	-0.0000248
1004.8	-0.0000260
1002.9	-0.0000266
1000.9	-0.0000127
999.0	0.0000072
997.1	0.0000162
995.1	0.0000211
993.2	0.0000256
991.3	0.0000196
989.4	0.0000079
987.4	0.0000062
985.5	0.0000108
983.6	0.0000077
981.6	-0.0000017
979.7	-0.0000041
977.8	0.0000073
975.9	0.0000179
973.9	0.0000138
972.0	0.0000056
970.1	0.0000072
968.1	0.0000125
966.2	0.0000122
964.3	0.0000120
962.4	0.0000179
960.4	0.0000153
958.5	-0.0000034
956.6	-0.0000171
954.6	-0.0000148
952.7	-0.0000065
950.8	0.0000030
948.9	0.0000088
946.9	0.0000033
945.0	-0.0000052
943.1	-0.0000039
941.1	0.0000025
939.2	0.0000032
937.3	0.0000042
935.4	0.0000097
933.4	0.0000039
931.5	-0.0000126
929.6	-0.0000181
927.6	-0.0000073
925.7	0.0000081
923.8	0.0000147
921.9	0.0000116
919.9	0.0000072
918.0	0.0000018
916.1	-0.0000027
914.1	-0.0000060
912.2	-0.0000099
910.3	-0.0000018
908.4	0.0000183
906.4	0.0000189
904.5	-0.0000078
902.6	-0.0000294
900.6	-0.0000386
898.7	-0.0000544
896.8	-0.0000649
894.9	-0.0000571
892.9	-0.0000431
891.0	-0.0000218
889.1	0.0000019
887.1	-0.0000008
885.2	-0.0000272
883.3	-0.0000391
881.4	-0.0000271
879.4	-0.0000158
877.5	-0.0000112
875.6	-0.0000044
873.6	0.0000031
871.7	0.0000105
869.8	0.0000262
867.9	0.0000388
865.9	0.0000298
864.0	0.0000251
862.1	0.0000413
860.1	0.0000485
858.2	0.0000375
856.3	0.0000208
854.4	0.0000103
852.4	0.0000211
850.5	0.0000491
848.6	0.0000776
846.6	0.0001043
844.7	0.0001265
842.8	0.0001293
840.9	0.0001005
838.9	0.0000579
837.0	0.0000358
835.1	0.0000286
833.1	0.0000128
831.2	0.0000017
829.3	0.0000062
827.4	0.0000104
825.4	0.0000106
823.5	0.0000122
821.6	0.0000089
819.6	-0.0000022
817.7	-0.0000023
815.8	0.0000203
813.9	0.0000438
811.9	0.0000579
810.0	0.0000686
808.1	0.0000541
806.1	0.0000092
804.2	-0.0000224
802.3	-0.0000117
800.4	0.0000163
798.4	0.0000218
796.5	-0.0000090
794.6	-0.0000441
792.6	-0.0000366
790.7	-0.0000134
788.8	-0.0000211
786.9	-0.0000287
784.9	-0.0000200
783.0	-0.0000309
781.1	-0.0000512
779.1	-0.0000389
777.2	0.0000105
775.3	0.0000773
773.4	0.0001593
771.4	0.0002221
769.5	0.0001860
767.6	0.0000807
765.6	0.0000080
763.7	-0.0000235
761.8	-0.0000065
759.9	0.0000847
757.9	0.0001803
756.0	0.0001899
754.1	0.0001207
752.1	0.0001025
750.2	0.0002320
748.3	0.0004053
746.4	0.0005082
744.4	0.0005550
742.5	0.0005326
740.6	0.0004100
738.6	0.0002570
736.7	0.0001123
734.8	-0.0000647
732.9	-0.0001813
730.9	-0.0001439
729.0	-0.0000898
727.1	-0.0000863
725.1	-0.0000499
723.2	0.0000447
721.3	0.0001337
719.4	0.0001028
717.4	0.0000048
715.5	-0.0000048
713.6	0.0000312
711.6	0.0000455
709.7	0.0000817
707.8	0.0000618
705.9	-0.0001148
703.9	-0.0002408
702.0	-0.0001245
700.1	0.0000410
698.1	-0.0000221
696.2	-0.0002156
694.3	-0.0001795
692.4	0.0000170
690.4	0.0000332
688.5	-0.0000559
686.6	-0.0000501
684.6	-0.0000124
682.7	-0.0000820
680.8	-0.0002650
678.9	-0.0003374
676.9	-0.0001401
675.0	0.0001923
673.1	0.0004107
671.1	0.0003680
669.2	0.0002078
667.3	0.0001537
665.4	0.0001482
663.4	0.0001550
661.5	0.0003713
659.6	0.0006706
657.6	0.0006172
655.7	0.0001610
653.8	-0.0002968
651.9	-0.0004470
649.9	-0.0003727
