3997.9	-0.0002293
3996.0	-0.0002225
3994.1	-0.0002007
3992.1	-0.0001748
3990.2	-0.0001672
3988.3	-0.0001632
3986.3	-0.0001488
3984.4	-0.0001416
3982.5	-0.0001433
3980.6	-0.0001367
3978.6	-0.0001166
3976.7	-0.0000926
3974.8	-0.0000768
3972.8	-0.0000695
3970.9	-0.0000657
3969.0	-0.0000611
3967.1	-0.0000527
3965.1	-0.0000397
3963.2	-0.0000186
3961.3	0.0000081
3959.3	0.0000214
3957.4	0.0000122
3955.5	0.0000009
3953.6	0.0000066
3951.6	0.0000286
3949.7	0.0000564
3947.8	0.0000663
3945.8	0.0000586
3943.9	0.0000619
3942.0	0.0000726
3940.1	0.0000747
3938.1	0.0000865
3936.2	0.0001179
3934.3	0.0001457
3932.3	0.0001516
3930.4	0.0001469
3928.5	0.0001472
3926.6	0.0001452
3924.6	0.0001353
3922.7	0.0001409
3920.8	0.0001738
3918.8	0.0002078
3916.9	0.0002168
3915.0	0.0002012
3913.1	0.0001826
3911.1	0.0001754
3909.2	0.0001836
3907.3	0.0002209
3905.3	0.0002851
3903.4	0.0003387
3901.5	0.0003510
3899.6	0.0003199
3897.6	0.0002616
3895.7	0.0002211
3893.8	0.0002456
3891.8	0.0002971
3889.9	0.0003038
3888.0	0.0002934
3886.1	0.0002959
3884.1	0.0002786
3882.2	0.0002660
3880.3	0.0002667
3878.3	0.0002411
3876.4	0.0002203
3874.5	0.0002372
3872.6	0.0002999
3870.6	0.0003787
3868.7	0.0003933
3866.8	0.0003686
3864.8	0.0003612
3862.9	0.0003394
3861.0	0.0002929
3859.1	0.0002810
3857.1	0.0004048
3855.2	0.0006395
3853.3	0.0007250
3851.3	0.0005481
3849.4	0.0003301
3847.5	0.0002358
3845.6	0.0002367
3843.6	0.0002668
3841.7	0.0003143
3839.8	0.0004007
3837.8	0.0004575
3835.9	0.0004054
3834.0	0.0003119
3832.1	0.0002541
3830.1	0.0002207
3828.2	0.0001992
3826.3	0.0001899
3824.3	0.0002231
3822.4	0.0003063
3820.5	0.0003490
3818.6	0.0003479
3816.6	0.0003467
3814.7	0.0002780
3812.8	0.0001746
3810.8	0.0001624
3808.9	0.0002428
3807.0	0.0002952
3805.1	0.0002882
3803.1	0.0003295
3801.2	0.0003749
3799.3	0.0003150
3797.3	0.0002214
3795.4	0.0001519
3793.5	0.0000980
3791.6	0.0000687
3789.6	0.0000500
3787.7	0.0000427
3785.8	0.0000606
3783.8	0.0000809
3781.9	0.0000926
3780.0	0.0000999
3778.1	0.0000861
3776.1	0.0000613
3774.2	0.0000600
3772.3	0.0000860
3770.3	0.0001063
3768.4	0.0000988
3766.5	0.0000840
3764.6	0.0000686
3762.6	0.0000597
3760.7	0.0000757
3758.8	0.0000829
3756.8	0.0000779
3754.9	0.0001221
3753.0	0.0002322
3751.1	0.0003249
3749.1	0.0003225
3747.2	0.0003312
3745.3	0.0003988
3743.3	0.0003305
3741.4	0.0001396
3739.5	0.0000655
3737.6	0.0001257
3735.6	0.0001740
3733.7	0.0001446
3731.8	0.0000619
3729.8	-0.0000170
3727.9	-0.0000478
3726.0	-0.0000453
3724.1	-0.0000446
3722.1	-0.0000472
3720.2	-0.0000601
3718.3	-0.0000855
3716.3	-0.0000790
3714.4	0.0000030
3712.5	0.0000922
3710.6	0.0000682
3708.6	-0.0000420
3706.7	-0.0001254
3704.8	-0.0001413
3702.8	-0.0001235
3700.9	-0.0001256
3699.0	-0.0001579
3697.1	-0.0001878
3695.1	-0.0001821
3693.2	-0.0001224
3691.3	-0.0000170
3689.3	0.0000435
3687.4	-0.0000309
3685.5	-0.0001582
3683.6	-0.0002126
3681.6	-0.0002021
3679.7	-0.0001467
3677.8	-0.0000171
3675.8	0.0000863
3673.9	0.0000626
3672.0	0.0000283
3670.1	0.0000136
3668.1	-0.0000765
3666.2	-0.0001786
3664.3	-0.0002202
3662.3	-0.0002342
3660.4	-0.0002177
3658.5	-0.0001441
3656.6	-0.0000798
3654.6	-0.0000763
3652.7	-0.0000322
3650.8	0.0000861
3648.8	0.0001279
3646.9	0.0000307
3645.0	-0.0000818
3643.1	-0.0001214
3641.1	-0.0001199
3639.2	-0.0001119
3637.3	-0.0000903
3635.3	-0.0000596
3633.4	-0.0000069
3631.5	0.0001138
3629.6	0.0002266
3627.6	0.0001867
3625.7	0.0000606
3623.8	0.0000178
3621.8	0.0000761
3619.9	0.0001411
3618.0	0.0001478
3616.1	0.0001352
3614.1	0.0001574
3612.2	0.0002004
3610.3	0.0002348
3608.3	0.0002344
3606.4	0.0001992
3604.5	0.0001723
3602.6	0.0001733
3600.6	0.0001895
3598.7	0.0002199
3596.8	0.0002613
3594.8	0.0002927
3592.9	0.0003046
3591.0	0.0003212
3589.1	0.0003599
3587.1	0.0003853
3585.2	0.0003664
3583.3	0.0003346
3581.3	0.0003303
3579.4	0.0003515
3577.5	0.0003809
3575.6	0.0004086
3573.6	0.0004312
3571.7	0.0004627
3569.8	0.0005240
3567.8	0.0005934
3565.9	0.0006158
3564.0	0.0005937
3562.1	0.0005856
3560.1	0.0006048
3558.2	0.0006220
3556.3	0.0006400
3554.3	0.0006806
3552.4	0.0007276
3550.5	0.0007592
3548.6	0.0007952
3546.6	0.0008412
3544.7	0.0008691
3542.8	0.0008830
3540.8	0.0009110
3538.9	0.0009597
3537.0	0.0010204
3535.1	0.0010769
3533.1	0.0011212
3531.2	0.0011628
3529.3	0.0012068
3527.3	0.0012562
3525.4	0.0013129
3523.5	0.0013751
3521.6	0.0014384
3519.6	0.0014916
3517.7	0.0015353
3515.8	0.0015822
3513.8	0.0016390
3511.9	0.0017042
3510.0	0.0017706
3508.1	0.0018321
3506.1	0.0018891
3504.2	0.0019381
3502.3	0.0019712
3500.3	0.0019974
3498.4	0.0020357
3496.5	0.0020792
3494.6	0.0021077
3492.6	0.0021268
3490.7	0.0021537
3488.8	0.0021832
3486.8	0.0021972
3484.9	0.0022001
3483.0	0.0022072
3481.1	0.0022153
3479.1	0.0022152
3477.2	0.0022087
3475.3	0.0022001
3473.3	0.0021954
3471.4	0.0021980
3469.5	0.0022047
3467.6	0.0022065
3465.6	0.0021960
3463.7	0.0021851
3461.8	0.0021864
3459.8	0.0021871
3457.9	0.0021814
3456.0	0.0021870
3454.1	0.0022004
3452.1	0.0022008
3450.2	0.0021932
3448.3	0.0021988
3446.3	0.0022182
3444.4	0.0022292
3442.5	0.0022240
3440.6	0.0022178
3438.6	0.0022215
3436.7	0.0022379
3434.8	0.0022539
3432.8	0.0022506
3430.9	0.0022324
3429.0	0.0022241
3427.1	0.0022328
3425.1	0.0022401
3423.2	0.0022436
3421.3	0.0022533
3419.3	0.0022587
3417.4	0.0022521
3415.5	0.0022515
3413.6	0.0022617
3411.6	0.0022590
3409.7	0.0022411
3407.8	0.0022316
3405.8	0.0022292
3403.9	0.0022138
3402.0	0.0021925
3400.1	0.0021825
3398.1	0.0021755
3396.2	0.0021584
3394.3	0.0021365
3392.3	0.0021158
3390.4	0.0020881
3388.5	0.0020587
3386.6	0.0020407
3384.6	0.0020216
3382.7	0.0019814
3380.8	0.0019229
3378.8	0.0018695
3376.9	0.0018331
3375.0	0.0017978
3373.1	0.0017639
3371.1	0.0017475
3369.2	0.0017306
3367.3	0.0016881
3365.3	0.0016375
3363.4	0.0016031
3361.5	0.0015772
3359.6	0.0015450
3357.6	0.0015033
3355.7	0.0014509
3353.8	0.0013942
3351.8	0.0013488
3349.9	0.0013176
3348.0	0.0012847
3346.1	0.0012400
3344.1	0.0011955
3342.2	0.0011615
3340.3	0.0011303
3338.3	0.0011033
3336.4	0.0010801
3334.5	0.0010411
3332.6	0.0009902
3330.6	0.0009499
3328.7	0.0009149
3326.8	0.0008779
3324.8	0.0008445
3322.9	0.0008089
3321.0	0.0007628
3319.1	0.0007143
3317.1	0.0006830
3315.2	0.0006702
3313.3	0.0006579
3311.3	0.0006413
3309.4	0.0006270
3307.5	0.0006103
3305.6	0.0005823
3303.6	0.0005458
3301.7	0.0005092
3299.8	0.0004743
3297.8	0.0004432
3295.9	0.0004180
3294.0	0.0003908
3292.1	0.0003612
3290.1	0.0003407
3288.2	0.0003275
3286.3	0.0003095
3284.3	0.0002852
3282.4	0.0002612
3280.5	0.0002400
3278.6	0.0002136
3276.6	0.0001933
3274.7	0.0002013
3272.8	0.0002135
3270.8	0.0001965
3268.9	0.0001652
3267.0	0.0001401
3265.1	0.0001120
3263.1	0.0000813
3261.2	0.0000627
3259.3	0.0000499
3257.3	0.0000345
3255.4	0.0000207
3253.5	0.0000094
3251.6	0.0000007
3249.6	-0.0000062
3247.7	-0.0000162
3245.8	-0.0000296
3243.8	-0.0000416
3241.9	-0.0000498
3240.0	-0.0000501
3238.1	-0.0000440
3236.1	-0.0000443
3234.2	-0.0000576
3232.3	-0.0000777
3230.3	-0.0000930
3228.4	-0.0000974
3226.5	-0.0000956
3224.6	-0.0000903
3222.6	-0.0000851
3220.7	-0.0000879
3218.8	-0.0000929
3216.8	-0.0000910
3214.9	-0.0000872
3213.0	-0.0000862
3211.1	-0.0000856
3209.1	-0.0000855
3207.2	-0.0000860
3205.3	-0.0000830
3203.3	-0.0000814
3201.4	-0.0000832
3199.5	-0.0000735
3197.6	-0.0000553
3195.6	-0.0000483
3193.7	-0.0000526
3191.8	-0.0000593
3189.8	-0.0000574
3187.9	-0.0000423
3186.0	-0.0000281
3184.1	-0.0000218
3182.1	-0.0000169
3180.2	-0.0000107
3178.3	-0.0000048
3176.3	-0.0000005
3174.4	0.0000067
3172.5	0.0000183
3170.6	0.0000309
3168.6	0.0000498
3166.7	0.0000755
3164.8	0.0000942
3162.8	0.0000987
3160.9	0.0000990
3159.0	0.0001096
3157.1	0.0001267
3155.1	0.0001372
3153.2	0.0001416
3151.3	0.0001473
3149.3	0.0001517
3147.4	0.0001446
3145.5	0.0001323
3143.6	0.0001387
3141.6	0.0001734
3139.7	0.0002144
3137.8	0.0002391
3135.8	0.0002507
3133.9	0.0002617
3132.0	0.0002729
3130.1	0.0002838
3128.1	0.0002967
3126.2	0.0003083
3124.3	0.0003173
3122.3	0.0003315
3120.4	0.0003447
3118.5	0.0003417
3116.6	0.0003288
3114.6	0.0003212
3112.7	0.0003272
3110.8	0.0003453
3108.8	0.0003617
3106.9	0.0003678
3105.0	0.0003730
3103.1	0.0003835
3101.1	0.0003960
3099.2	0.0004099
3097.3	0.0004242
3095.3	0.0004378
3093.4	0.0004570
3091.5	0.0004865
3089.6	0.0005233
3087.6	0.0005622
3085.7	0.0005962
3083.8	0.0006253
3081.8	0.0006569
3079.9	0.0006935
3078.0	0.0007293
3076.1	0.0007608
3074.1	0.0007855
3072.2	0.0007974
3070.3	0.0007953
3068.3	0.0007867
3066.4	0.0007848
3064.5	0.0007937
3062.6	0.0008034
3060.6	0.0008093
3058.7	0.0008182
3056.8	0.0008354
3054.8	0.0008481
3052.9	0.0008409
3051.0	0.0008161
3049.1	0.0007752
3047.1	0.0007241
3045.2	0.0006758
3043.3	0.0006371
3041.3	0.0006145
3039.4	0.0006105
3037.5	0.0006209
3035.6	0.0006384
3033.6	0.0006607
3031.7	0.0006962
3029.8	0.0007403
3027.8	0.0007724
3025.9	0.0007836
3024.0	0.0007826
3022.1	0.0007805
3020.1	0.0007748
3018.2	0.0007693
3016.3	0.0007807
3014.3	0.0008080
3012.4	0.0008264
3010.5	0.0008185
3008.6	0.0007973
3006.6	0.0007840
3004.7	0.0007702
3002.8	0.0007404
3000.8	0.0006987
2998.9	0.0006506
2997.0	0.0006046
2995.1	0.0005739
2993.1	0.0005636
2991.2	0.0005724
2989.3	0.0005964
2987.3	0.0006315
2985.4	0.0006815
2983.5	0.0007487
2981.6	0.0008166
2979.6	0.0008802
2977.7	0.0009573
2975.8	0.0010479
2973.8	0.0011300
2971.9	0.0011904
2970.0	0.0012352
2968.1	0.0012740
2966.1	0.0013014
2964.2	0.0013082
2962.3	0.0012968
2960.3	0.0012776
2958.4	0.0012565
2956.5	0.0012345
2954.6	0.0012085
2952.6	0.0011692
2950.7	0.0011164
2948.8	0.0010692
2946.8	0.0010394
2944.9	0.0010142
2943.0	0.0009915
2941.1	0.0009884
2939.1	0.0010133
2937.2	0.0010571
2935.3	0.0010938
2933.3	0.0010949
2931.4	0.0010589
2929.5	0.0010013
2927.6	0.0009277
2925.6	0.0008485
2923.7	0.0007835
2921.8	0.0007371
2919.8	0.0007076
2917.9	0.0007007
2916.0	0.0007114
2914.1	0.0007257
2912.1	0.0007322
2910.2	0.0007216
2908.3	0.0006932
2906.3	0.0006562
2904.4	0.0006180
2902.5	0.0005786
2900.6	0.0005322
2898.6	0.0004753
2896.7	0.0004169
2894.8	0.0003707
2892.8	0.0003382
2890.9	0.0003039
2889.0	0.0002561
2887.1	0.0002018
2885.1	0.0001528
2883.2	0.0001133
2881.3	0.0000811
2879.3	0.0000525
2877.4	0.0000316
2875.5	0.0000212
2873.6	0.0000127
2871.6	0.0000047
2869.7	0.0000020
2867.8	0.0000043
2865.8	0.0000169
2863.9	0.0000422
2862.0	0.0000654
2860.1	0.0000866
2858.1	0.0001208
2856.2	0.0001657
2854.3	0.0002235
2852.3	0.0003142
2850.4	0.0004474
2848.5	0.0006137
2846.6	0.0007913
2844.6	0.0009544
2842.7	0.0010651
2840.8	0.0010716
2838.8	0.0009542
2836.9	0.0007506
2835.0	0.0005189
2833.1	0.0003026
2831.1	0.0001345
2829.2	0.0000298
2827.3	-0.0000300
2825.3	-0.0000733
2823.4	-0.0001045
2821.5	-0.0001180
2819.6	-0.0001218
2817.6	-0.0001248
2815.7	-0.0001221
2813.8	-0.0001088
2811.8	-0.0000975
2809.9	-0.0001017
2808.0	-0.0001121
2806.1	-0.0001167
2804.1	-0.0001194
2802.2	-0.0001253
2800.3	-0.0001333
2798.3	-0.0001411
2796.4	-0.0001455
2794.5	-0.0001431
2792.6	-0.0001351
2790.6	-0.0001273
2788.7	-0.0001246
2786.8	-0.0001281
2784.8	-0.0001334
2782.9	-0.0001380
2781.0	-0.0001429
2779.1	-0.0001427
2777.1	-0.0001349
2775.2	-0.0001270
2773.3	-0.0001217
2771.3	-0.0001129
2769.4	-0.0001019
2767.5	-0.0000966
2765.6	-0.0000956
2763.6	-0.0000930
2761.7	-0.0000880
2759.8	-0.0000859
2757.8	-0.0000942
2755.9	-0.0001103
2754.0	-0.0001213
2752.1	-0.0001231
2750.1	-0.0001278
2748.2	-0.0001393
2746.3	-0.0001483
2744.3	-0.0001482
2742.4	-0.0001385
2740.5	-0.0001321
2738.6	-0.0001350
2736.6	-0.0001338
2734.7	-0.0001282
2732.8	-0.0001293
2730.8	-0.0001314
2728.9	-0.0001301
2727.0	-0.0001342
2725.1	-0.0001413
2723.1	-0.0001408
2721.2	-0.0001360
2719.3	-0.0001340
2717.3	-0.0001321
2715.4	-0.0001274
2713.5	-0.0001229
2711.6	-0.0001210
2709.6	-0.0001123
2707.7	-0.0000932
2705.8	-0.0000806
2703.8	-0.0000787
2701.9	-0.0000761
2700.0	-0.0000742
2698.1	-0.0000752
2696.1	-0.0000727
2694.2	-0.0000643
2692.3	-0.0000581
2690.3	-0.0000600
2688.4	-0.0000656
2686.5	-0.0000676
2684.6	-0.0000633
2682.6	-0.0000575
2680.7	-0.0000596
2678.8	-0.0000675
2676.8	-0.0000716
2674.9	-0.0000708
2673.0	-0.0000727
2671.1	-0.0000787
2669.1	-0.0000821
2667.2	-0.0000784
2665.3	-0.0000745
2663.3	-0.0000763
2661.4	-0.0000781
2659.5	-0.0000762
2657.6	-0.0000714
2655.6	-0.0000622
2653.7	-0.0000475
2651.8	-0.0000304
2649.8	-0.0000143
2647.9	0.0000063
2646.0	0.0000328
2644.1	0.0000545
2642.1	0.0000668
2640.2	0.0000740
2638.3	0.0000790
2636.3	0.0000841
2634.4	0.0000946
2632.5	0.0001068
2630.6	0.0001116
2628.6	0.0001078
2626.7	0.0001004
2624.8	0.0000918
2622.8	0.0000851
2620.9	0.0000873
2619.0	0.0000936
2617.1	0.0000898
2615.1	0.0000764
2613.2	0.0000639
2611.3	0.0000554
2609.3	0.0000455
2607.4	0.0000329
2605.5	0.0000237
2603.6	0.0000186
2601.6	0.0000146
2599.7	0.0000136
2597.8	0.0000146
2595.8	0.0000150
2593.9	0.0000146
2592.0	0.0000132
2590.1	0.0000135
2588.1	0.0000184
2586.2	0.0000263
2584.3	0.0000345
2582.3	0.0000389
2580.4	0.0000375
2578.5	0.0000358
2576.6	0.0000403
2574.6	0.0000489
2572.7	0.0000592
2570.8	0.0000703
2568.8	0.0000780
2566.9	0.0000836
2565.0	0.0000890
2563.1	0.0000866
2561.1	0.0000731
2559.2	0.0000557
2557.3	0.0000432
2555.3	0.0000370
2553.4	0.0000344
2551.5	0.0000366
2549.6	0.0000425
2547.6	0.0000476
2545.7	0.0000484
2543.8	0.0000451
2541.8	0.0000400
2539.9	0.0000330
2538.0	0.0000307
2536.1	0.0000405
2534.1	0.0000498
2532.2	0.0000437
2530.3	0.0000323
2528.3	0.0000279
2526.4	0.0000221
2524.5	0.0000081
2522.6	-0.0000056
2520.6	-0.0000147
2518.7	-0.0000230
2516.8	-0.0000309
2514.8	-0.0000412
2512.9	-0.0000561
2511.0	-0.0000725
2509.1	-0.0000826
2507.1	-0.0000834
2505.2	-0.0000838
2503.3	-0.0000914
2501.3	-0.0001009
2499.4	-0.0001082
2497.5	-0.0001133
2495.6	-0.0001139
2493.6	-0.0001083
2491.7	-0.0001021
2489.8	-0.0001005
2487.8	-0.0001034
2485.9	-0.0001049
2484.0	-0.0001064
2482.1	-0.0001157
2480.1	-0.0001258
2478.2	-0.0001251
2476.3	-0.0001222
2474.3	-0.0001245
2472.4	-0.0001207
2470.5	-0.0001114
2468.6	-0.0001147
2466.6	-0.0001313
2464.7	-0.0001441
2462.8	-0.0001460
2460.8	-0.0001435
2458.9	-0.0001408
2457.0	-0.0001353
2455.1	-0.0001248
2453.1	-0.0001163
2451.2	-0.0001197
2449.3	-0.0001323
2447.3	-0.0001386
2445.4	-0.0001312
2443.5	-0.0001236
2441.6	-0.0001268
2439.6	-0.0001353
2437.7	-0.0001398
2435.8	-0.0001366
2433.8	-0.0001292
2431.9	-0.0001236
2430.0	-0.0001223
2428.1	-0.0001247
2426.1	-0.0001320
2424.2	-0.0001462
2422.3	-0.0001604
2420.3	-0.0001703
2418.4	-0.0001764
2416.5	-0.0001730
2414.6	-0.0001662
2412.6	-0.0001679
2410.7	-0.0001759
2408.8	-0.0001846
2406.8	-0.0001937
2404.9	-0.0002011
2403.0	-0.0002024
2401.1	-0.0002002
2399.1	-0.0001999
2397.2	-0.0002008
2395.3	-0.0001998
2393.3	-0.0001964
2391.4	-0.0001909
2389.5	-0.0001864
2387.6	-0.0001869
2385.6	-0.0001934
2383.7	-0.0002019
2381.8	-0.0002042
2379.8	-0.0002000
2377.9	-0.0001969
2376.0	-0.0001991
2374.1	-0.0002061
2372.1	-0.0002137
2370.2	-0.0002170
2368.3	-0.0002227
2366.3	-0.0002382
2364.4	-0.0002516
2362.5	-0.0002524
2360.6	-0.0002493
2358.6	-0.0002514
2356.7	-0.0002522
2354.8	-0.0002431
2352.8	-0.0002302
2350.9	-0.0002187
2349.0	-0.0002060
2347.1	-0.0001930
2345.1	-0.0001774
2343.2	-0.0001502
2341.3	-0.0001085
2339.3	-0.0000689
2337.4	-0.0000584
2335.5	-0.0000895
2333.6	-0.0001457
2331.6	-0.0001946
2329.7	-0.0002197
2327.8	-0.0002273
2325.8	-0.0002259
2323.9	-0.0002180
2322.0	-0.0002111
2320.1	-0.0002091
2318.1	-0.0002079
2316.2	-0.0002067
2314.3	-0.0002054
2312.3	-0.0002044
2310.4	-0.0002059
2308.5	-0.0002071
2306.6	-0.0002086
2304.6	-0.0002133
2302.7	-0.0002145
2300.8	-0.0002067
2298.8	-0.0001983
2296.9	-0.0001966
2295.0	-0.0001992
2293.1	-0.0002035
2291.1	-0.0002072
2289.2	-0.0002077
2287.3	-0.0002072
2285.3	-0.0002073
2283.4	-0.0002067
2281.5	-0.0002034
2279.6	-0.0001985
2277.6	-0.0001920
2275.7	-0.0001791
2273.8	-0.0001623
2271.8	-0.0001466
2269.9	-0.0001321
2268.0	-0.0001177
2266.1	-0.0001050
2264.1	-0.0000999
2262.2	-0.0001040
2260.3	-0.0001130
2258.3	-0.0001256
2256.4	-0.0001397
2254.5	-0.0001545
2252.6	-0.0001659
2250.6	-0.0001711
2248.7	-0.0001752
2246.8	-0.0001795
2244.8	-0.0001826
2242.9	-0.0001878
2241.0	-0.0001939
2239.1	-0.0001986
2237.1	-0.0002011
2235.2	-0.0002007
2233.3	-0.0002025
2231.3	-0.0002094
2229.4	-0.0002144
2227.5	-0.0002100
2225.6	-0.0002014
2223.6	-0.0001974
2221.7	-0.0001979
2219.8	-0.0002001
2217.8	-0.0002022
2215.9	-0.0001985
2214.0	-0.0001903
2212.1	-0.0001836
2210.1	-0.0001770
2208.2	-0.0001690
2206.3	-0.0001672
2204.3	-0.0001723
2202.4	-0.0001740
2200.5	-0.0001701
2198.6	-0.0001663
2196.6	-0.0001625
2194.7	-0.0001624
2192.8	-0.0001665
2190.8	-0.0001658
2188.9	-0.0001632
2187.0	-0.0001659
2185.1	-0.0001658
2183.1	-0.0001598
2181.2	-0.0001565
2179.3	-0.0001574
2177.3	-0.0001553
2175.4	-0.0001478
2173.5	-0.0001448
2171.6	-0.0001542
2169.6	-0.0001681
2167.7	-0.0001742
2165.8	-0.0001720
2163.8	-0.0001710
2161.9	-0.0001741
2160.0	-0.0001742
2158.1	-0.0001677
2156.1	-0.0001599
2154.2	-0.0001549
2152.3	-0.0001535
2150.3	-0.0001533
2148.4	-0.0001450
2146.5	-0.0001314
2144.6	-0.0001282
2142.6	-0.0001317
2140.7	-0.0001268
2138.8	-0.0001142
2136.8	-0.0001039
2134.9	-0.0001009
2133.0	-0.0001012
2131.1	-0.0000995
2129.1	-0.0001004
2127.2	-0.0001060
2125.3	-0.0001117
2123.3	-0.0001162
2121.4	-0.0001178
2119.5	-0.0001154
2117.6	-0.0001142
2115.6	-0.0001166
2113.7	-0.0001165
2111.8	-0.0001135
2109.8	-0.0001154
2107.9	-0.0001175
2106.0	-0.0001107
2104.1	-0.0001039
2102.1	-0.0001040
2100.2	-0.0001050
2098.3	-0.0001058
2096.3	-0.0001110
2094.4	-0.0001210
2092.5	-0.0001325
2090.6	-0.0001504
2088.6	-0.0001888
2086.7	-0.0002566
2084.8	-0.0003426
2082.8	-0.0004173
2080.9	-0.0004578
2079.0	-0.0004640
2077.1	-0.0004473
2075.1	-0.0004183
2073.2	-0.0003837
2071.3	-0.0003465
2069.3	-0.0003109
2067.4	-0.0002866
2065.5	-0.0002764
2063.6	-0.0002652
2061.6	-0.0002413
2059.7	-0.0002133
2057.8	-0.0001926
2055.8	-0.0001778
2053.9	-0.0001603
2052.0	-0.0001397
2050.1	-0.0001218
2048.1	-0.0001033
2046.2	-0.0000785
2044.3	-0.0000495
2042.3	-0.0000204
2040.4	0.0000031
2038.5	0.0000203
2036.6	0.0000371
2034.6	0.0000578
2032.7	0.0000799
2030.8	0.0000982
2028.8	0.0001086
2026.9	0.0001122
2025.0	0.0001131
2023.1	0.0001122
2021.1	0.0001076
2019.2	0.0001004
2017.3	0.0000872
2015.3	0.0000604
2013.4	0.0000231
2011.5	-0.0000074
2009.6	-0.0000216
2007.6	-0.0000311
2005.7	-0.0000463
2003.8	-0.0000611
2001.8	-0.0000705
1999.9	-0.0000788
1998.0	-0.0000852
1996.1	-0.0000830
1994.1	-0.0000715
1992.2	-0.0000634
1990.3	-0.0000707
1988.3	-0.0000864
1986.4	-0.0000975
1984.5	-0.0001015
1982.6	-0.0001004
1980.6	-0.0001013
1978.7	-0.0001073
1976.8	-0.0001105
1974.8	-0.0001071
1972.9	-0.0001071
1971.0	-0.0001156
1969.1	-0.0001211
1967.1	-0.0001244
1965.2	-0.0001367
1963.3	-0.0001505
1961.4	-0.0001573
1959.4	-0.0001568
1957.5	-0.0001483
1955.6	-0.0001365
1953.6	-0.0001289
1951.7	-0.0001250
1949.8	-0.0001208
1947.9	-0.0001167
1945.9	-0.0001109
1944.0	-0.0001012
1942.1	-0.0000997
1940.1	-0.0001089
1938.2	-0.0001127
1936.3	-0.0001099
1934.4	-0.0001101
1932.4	-0.0001096
1930.5	-0.0001020
1928.6	-0.0000944
1926.6	-0.0000919
1924.7	-0.0000887
1922.8	-0.0000833
1920.9	-0.0000740
1918.9	-0.0000611
1917.0	-0.0000653
1915.1	-0.0000894
1913.1	-0.0001051
1911.2	-0.0001062
1909.3	-0.0001107
1907.4	-0.0001243
1905.4	-0.0001354
1903.5	-0.0001381
1901.6	-0.0001376
1899.6	-0.0001339
1897.7	-0.0001226
1895.8	-0.0001095
1893.9	-0.0001009
1891.9	-0.0000904
1890.0	-0.0000791
1888.1	-0.0000783
1886.1	-0.0000811
1884.2	-0.0000767
1882.3	-0.0000708
1880.4	-0.0000721
1878.4	-0.0000780
1876.5	-0.0000800
1874.6	-0.0000799
1872.6	-0.0000735
1870.7	-0.0000542
1868.8	-0.0000512
1866.9	-0.0000847
1864.9	-0.0001250
1863.0	-0.0001537
1861.1	-0.0001831
1859.1	-0.0002087
1857.2	-0.0002176
1855.3	-0.0002148
1853.4	-0.0002133
1851.4	-0.0002137
1849.5	-0.0002056
1847.6	-0.0001726
1845.6	-0.0001200
1843.7	-0.0001083
1841.8	-0.0001555
1839.9	-0.0001957
1837.9	-0.0002021
1836.0	-0.0001966
1834.1	-0.0001816
1832.1	-0.0001494
1830.2	-0.0001218
1828.3	-0.0001226
1826.4	-0.0001362
1824.4	-0.0001523
1822.5	-0.0001681
1820.6	-0.0001704
1818.6	-0.0001649
1816.7	-0.0001604
1814.8	-0.0001509
1812.9	-0.0001363
1810.9	-0.0001265
1809.0	-0.0001236
1807.1	-0.0001186
1805.1	-0.0001026
1803.2	-0.0000736
1801.3	-0.0000477
1799.4	-0.0000446
1797.4	-0.0000540
1795.5	-0.0000322
1793.6	0.0000223
1791.6	0.0000355
1789.7	-0.0000137
1787.8	-0.0000469
1785.9	-0.0000300
1783.9	-0.0000065
1782.0	0.0000008
1780.1	0.0000018
1778.1	0.0000105
1776.2	0.0000639
1774.3	0.0001762
1772.4	0.0002604
1770.4	0.0002472
1768.5	0.0001946
1766.6	0.0001578
1764.6	0.0001568
1762.7	0.0001869
1760.8	0.0001936
1758.9	0.0001776
1756.9	0.0001637
1755.0	0.0001505
1753.1	0.0001657
1751.1	0.0001829
1749.2	0.0001430
1747.3	0.0000789
1745.4	0.0000424
1743.4	0.0000401
1741.5	0.0000716
1739.6	0.0001131
1737.6	0.0001966
1735.7	0.0003868
1733.8	0.0005572
1731.9	0.0005894
1729.9	0.0006135
1728.0	0.0007295
1726.1	0.0009084
1724.1	0.0011194
1722.2	0.0013666
1720.3	0.0017017
1718.4	0.0020786
1716.4	0.0023276
1714.5	0.0024274
1712.6	0.0025142
1710.6	0.0026499
1708.7	0.0028212
1706.8	0.0029843
1704.9	0.0030888
1702.9	0.0031793
1701.0	0.0032400
1699.1	0.0031525
1697.1	0.0029539
1695.2	0.0026800
1693.3	0.0023215
1691.4	0.0020072
1689.4	0.0018081
1687.5	0.0017487
1685.6	0.0017845
1683.6	0.0016839
1681.7	0.0014203
1679.8	0.0012266
1677.9	0.0012012
1675.9	0.0012367
1674.0	0.0012144
1672.1	0.0011703
1670.1	0.0011484
1668.2	0.0010835
1666.3	0.0009973
1664.4	0.0009754
1662.4	0.0009709
1660.5	0.0009201
1658.6	0.0008873
1656.6	0.0010168
1654.7	0.0013116
1652.8	0.0014391
1650.9	0.0012437
1648.9	0.0010754
1647.0	0.0010738
1645.1	0.0010203
1643.1	0.0008835
1641.2	0.0007963
1639.3	0.0008202
1637.4	0.0009322
1635.4	0.0009787
1633.5	0.0008729
1631.6	0.0007780
1629.6	0.0008106
1627.7	0.0009294
1625.8	0.0011455
1623.9	0.0014957
1621.9	0.0019274
1620.0	0.0023796
1618.1	0.0027376
1616.1	0.0027889
1614.2	0.0025600
1612.3	0.0023284
1610.4	0.0022077
1608.4	0.0021553
1606.5	0.0022374
1604.6	0.0026496
1602.6	0.0034636
1600.7	0.0043593
1598.8	0.0047590
1596.9	0.0043438
1594.9	0.0033525
1593.0	0.0023080
1591.1	0.0015516
1589.1	0.0011000
1587.2	0.0008267
1585.3	0.0006310
1583.4	0.0004714
1581.4	0.0003516
1579.5	0.0003264
1577.6	0.0003906
1575.6	0.0003722
1573.7	0.0002360
1571.8	0.0001723
1569.9	0.0001786
1567.9	0.0001226
1566.0	0.0000455
1564.1	0.0000525
1562.1	0.0002231
1560.2	0.0004793
1558.3	0.0005365
1556.4	0.0003640
1554.4	0.0002003
1552.5	0.0001187
1550.6	0.0000872
1548.6	0.0001072
1546.7	0.0001920
1544.8	0.0003607
1542.9	0.0006162
1540.9	0.0008777
1539.0	0.0009788
1537.1	0.0009689
1535.1	0.0011011
1533.2	0.0013890
1531.3	0.0016988
1529.4	0.0020380
1527.4	0.0024318
1525.5	0.0029027
1523.6	0.0035552
1521.6	0.0043704
1519.7	0.0051707
1517.8	0.0059537
1515.9	0.0071775
1513.9	0.0101133
1512.0	0.0157884
1510.1	0.0220315
1508.1	0.0242791
1506.2	0.0210353
1504.3	0.0150799
1502.4	0.0093696
1500.4	0.0051655
1498.5	0.0027205
1496.6	0.0015420
1494.6	0.0008910
1492.7	0.0004698
1490.8	0.0002656
1488.9	0.0001849
1486.9	0.0001458
1485.0	0.0001698
1483.1	0.0003092
1481.1	0.0006061
1479.2	0.0011317
1477.3	0.0019771
1475.4	0.0031002
1473.4	0.0041786
1471.5	0.0047416
1469.6	0.0046439
1467.6	0.0042129
1465.7	0.0038155
1463.8	0.0035823
1461.9	0.0035302
1459.9	0.0036454
1458.0	0.0037659
1456.1	0.0036627
1454.1	0.0033689
1452.2	0.0031075
1450.3	0.0029954
1448.4	0.0030851
1446.4	0.0033614
1444.5	0.0036120
1442.6	0.0035615
1440.6	0.0031411
1438.7	0.0025158
1436.8	0.0018434
1434.9	0.0012298
1432.9	0.0008195
1431.0	0.0006416
1429.1	0.0005729
1427.1	0.0005380
1425.2	0.0005475
1423.3	0.0006154
1421.4	0.0007442
1419.4	0.0008608
1417.5	0.0008719
1415.6	0.0008234
1413.6	0.0007958
1411.7	0.0007878
1409.8	0.0007776
1407.9	0.0007700
1405.9	0.0007761
1404.0	0.0007792
1402.1	0.0007852
1400.1	0.0008135
1398.2	0.0008472
1396.3	0.0008788
1394.4	0.0009010
1392.4	0.0009053
1390.5	0.0009347
1388.6	0.0010161
1386.6	0.0011166
1384.7	0.0012269
1382.8	0.0013697
1380.9	0.0015494
1378.9	0.0017600
1377.0	0.0019942
1375.1	0.0022315
1373.1	0.0024445
1371.2	0.0026294
1369.3	0.0027919
1367.4	0.0029173
1365.4	0.0029989
1363.5	0.0030235
1361.6	0.0029488
1359.6	0.0027572
1357.7	0.0024744
1355.8	0.0021377
1353.9	0.0017824
1351.9	0.0014369
1350.0	0.0011249
1348.1	0.0008767
1346.1	0.0007076
1344.2	0.0005952
1342.3	0.0005054
1340.4	0.0004177
1338.4	0.0003201
1336.5	0.0002145
1334.6	0.0001236
1332.6	0.0000700
1330.7	0.0000537
1328.8	0.0000622
1326.9	0.0000982
1324.9	0.0001762
1323.0	0.0003018
1321.1	0.0004784
1319.1	0.0007080
1317.2	0.0009926
1315.3	0.0013457
1313.4	0.0017921
1311.4	0.0023326
1309.5	0.0028868
1307.6	0.0032851
1305.6	0.0033691
1303.7	0.0031256
1301.8	0.0027030
1299.9	0.0023087
1297.9	0.0020824
1296.0	0.0020327
1294.1	0.0020959
1292.1	0.0022170
1290.2	0.0023715
1288.3	0.0025735
1286.4	0.0028587
1284.4	0.0032683
1282.5	0.0038648
1280.6	0.0047579
1278.6	0.0061828
1276.7	0.0085470
1274.8	0.0121396
1272.9	0.0164730
1270.9	0.0200846
1269.0	0.0215393
1267.1	0.0206115
1265.1	0.0181431
1263.2	0.0150861
1261.3	0.0120185
1259.4	0.0092370
1257.4	0.0069546
1255.5	0.0053605
1253.6	0.0045104
1251.6	0.0042547
1249.7	0.0043419
1247.8	0.0045628
1245.9	0.0048116
1243.9	0.0050759
1242.0	0.0053943
1240.1	0.0057814
1238.1	0.0061805
1236.2	0.0065113
1234.3	0.0067182
1232.4	0.0067730
1230.4	0.0066868
1228.5	0.0065013
1226.6	0.0062658
1224.6	0.0060188
1222.7	0.0057635
1220.8	0.0054871
1218.9	0.0052031
1216.9	0.0049403
1215.0	0.0047085
1213.1	0.0044982
1211.1	0.0042937
1209.2	0.0040706
1207.3	0.0038048
1205.4	0.0034996
1203.4	0.0031793
1201.5	0.0028607
1199.6	0.0025391
1197.6	0.0022101
1195.7	0.0018855
1193.8	0.0015843
1191.9	0.0013332
1189.9	0.0011616
1188.0	0.0010946
1186.1	0.0011518
1184.1	0.0013197
1182.2	0.0015431
1180.3	0.0017498
1178.4	0.0018668
1176.4	0.0018560
1174.5	0.0017340
1172.6	0.0015263
1170.6	0.0012482
1168.7	0.0009554
1166.8	0.0007314
1164.9	0.0006159
1162.9	0.0006013
1161.0	0.0006570
1159.1	0.0007368
1157.1	0.0007901
1155.2	0.0007750
1153.3	0.0006760
1151.4	0.0005139
1149.4	0.0003291
1147.5	0.0001591
1145.6	0.0000310
1143.6	-0.0000424
1141.7	-0.0000681
1139.8	-0.0000725
1137.9	-0.0000729
1135.9	-0.0000588
1134.0	-0.0000263
1132.1	0.0000147
1130.1	0.0000671
1128.2	0.0001302
1126.3	0.0002013
1124.4	0.0003238
1122.4	0.0005979
1120.5	0.0011833
1118.6	0.0022751
1116.6	0.0038554
1114.7	0.0053991
1112.8	0.0061063
1110.9	0.0055739
1108.9	0.0041151
1107.0	0.0024517
1105.1	0.0011810
1103.1	0.0004676
1101.2	0.0001443
1099.3	0.0000045
1097.4	-0.0000582
1095.4	-0.0000826
1093.5	-0.0000829
1091.6	-0.0000699
1089.6	-0.0000607
1087.7	-0.0000630
1085.8	-0.0000774
1083.9	-0.0000974
1081.9	-0.0001027
1080.0	-0.0000884
1078.1	-0.0000790
1076.1	-0.0000837
1074.2	-0.0000849
1072.3	-0.0000764
1070.4	-0.0000628
1068.4	-0.0000394
1066.5	-0.0000055
1064.6	0.0000367
1062.6	0.0000862
1060.7	0.0001398
1058.8	0.0002228
1056.9	0.0003824
1054.9	0.0006510
1053.0	0.0010792
1051.1	0.0017713
1049.1	0.0028017
1047.2	0.0040272
1045.3	0.0049999
1043.4	0.0052292
1041.4	0.0046062
1039.5	0.0035062
1037.6	0.0025161
1035.6	0.0021467
1033.7	0.0026796
1031.8	0.0039900
1029.9	0.0054329
1027.9	0.0062077
1026.0	0.0059955
1024.1	0.0050924
1022.1	0.0039954
1020.2	0.0030351
1018.3	0.0023106
1016.4	0.0017917
1014.4	0.0014179
1012.5	0.0011394
1010.6	0.0009257
1008.6	0.0007593
1006.7	0.0006287
1004.8	0.0005231
1002.9	0.0004409
1000.9	0.0003813
999.0	0.0003325
997.1	0.0002899
995.1	0.0002618
993.2	0.0002450
991.3	0.0002297
989.4	0.0002158
987.4	0.0002010
985.5	0.0001827
983.6	0.0001715
981.6	0.0001738
979.7	0.0001852
977.8	0.0002012
975.9	0.0002207
973.9	0.0002471
972.0	0.0002830
970.1	0.0003154
968.1	0.0003341
966.2	0.0003495
964.3	0.0003590
962.4	0.0003559
960.4	0.0003560
958.5	0.0003643
956.6	0.0003626
954.6	0.0003468
952.7	0.0003350
950.8	0.0003321
948.9	0.0003204
946.9	0.0002950
945.0	0.0002711
943.1	0.0002556
941.1	0.0002472
939.2	0.0002497
937.3	0.0002594
935.4	0.0002690
933.4	0.0002819
931.5	0.0003149
929.6	0.0003806
927.6	0.0004756
925.7	0.0005970
923.8	0.0007340
921.9	0.0008523
919.9	0.0009134
918.0	0.0009043
916.1	0.0008445
914.1	0.0007477
912.2	0.0006159
910.3	0.0004695
908.4	0.0003437
906.4	0.0002636
904.5	0.0002309
902.6	0.0002264
900.6	0.0002287
898.7	0.0002272
896.8	0.0002306
894.9	0.0002553
892.9	0.0002850
891.0	0.0002857
889.1	0.0002638
887.1	0.0002538
885.2	0.0002632
883.3	0.0002736
881.4	0.0002656
879.4	0.0002366
877.5	0.0002101
875.6	0.0002009
873.6	0.0001966
871.7	0.0001939
869.8	0.0002028
867.9	0.0002281
865.9	0.0002542
864.0	0.0002567
862.1	0.0002452
860.1	0.0002480
858.2	0.0002688
856.3	0.0002939
854.4	0.0003278
852.4	0.0003708
850.5	0.0004019
848.6	0.0004330
846.6	0.0005021
844.7	0.0006156
842.8	0.0007774
840.9	0.0010086
838.9	0.0012561
837.0	0.0013530
835.1	0.0011677
833.1	0.0007721
831.2	0.0003752
829.3	0.0001085
827.4	-0.0000296
825.4	-0.0000889
823.5	-0.0001217
821.6	-0.0001436
819.6	-0.0001310
817.7	-0.0000907
815.8	-0.0000593
813.9	-0.0000475
811.9	-0.0000358
810.0	-0.0000213
808.1	0.0000020
806.1	0.0000447
804.2	0.0000757
802.3	0.0000520
800.4	0.0000067
798.4	0.0000012
796.5	0.0000236
794.6	0.0000481
792.6	0.0000583
790.7	0.0000462
788.8	0.0000631
786.9	0.0001118
784.9	0.0001462
783.0	0.0002092
781.1	0.0003392
779.1	0.0004853
777.2	0.0006632
775.3	0.0009730
773.4	0.0014602
771.4	0.0021448
769.5	0.0031324
767.6	0.0046019
765.6	0.0066434
763.7	0.0089418
761.8	0.0106712
759.9	0.0111130
757.9	0.0103994
756.0	0.0092954
754.1	0.0084328
752.1	0.0079686
750.2	0.0076641
748.3	0.0072199
746.4	0.0065297
744.4	0.0056188
742.5	0.0045177
740.6	0.0033375
738.6	0.0022654
736.7	0.0014436
734.8	0.0009219
732.9	0.0006405
730.9	0.0005735
729.0	0.0006598
727.1	0.0007155
725.1	0.0006707
723.2	0.0006314
721.3	0.0006657
719.4	0.0007303
717.4	0.0007482
715.5	0.0007130
713.6	0.0006853
711.6	0.0006949
709.7	0.0007134
707.8	0.0006736
705.9	0.0005673
703.9	0.0004803
702.0	0.0004169
700.1	0.0002875
698.1	0.0001388
696.2	0.0001416
694.3	0.0002419
692.4	0.0002371
690.4	0.0002243
688.5	0.0003251
686.6	0.0004065
684.6	0.0004026
682.7	0.0003150
680.8	0.0002472
678.9	0.0002879
676.9	0.0002834
675.0	0.0003918
673.1	0.0007875
671.1	0.0011110
669.2	0.0010116
667.3	0.0005969
665.4	0.0002488
663.4	0.0000062
661.5	-0.0001378
659.6	0.0001509
657.6	0.0005431
655.7	0.0004904
653.8	0.0003217
651.9	0.0003708
649.9	0.0005085
