3997.9	0.0000066
3996.0	0.0000046
3994.1	0.0000163
3992.1	0.0000293
3990.2	0.0000422
3988.3	0.0000587
3986.3	0.0000654
3984.4	0.0000496
3982.5	0.0000257
3980.6	0.0000137
3978.6	0.0000128
3976.7	0.0000089
3974.8	-0.0000005
3972.8	-0.0000066
3970.9	-0.0000066
3969.0	-0.0000056
3967.1	-0.0000078
3965.1	-0.0000055
3963.2	0.0000000
3961.3	0.0000002
3959.3	-0.0000049
3957.4	-0.0000234
3955.5	-0.0000490
3953.6	-0.0000511
3951.6	-0.0000244
3949.7	0.0000081
3947.8	0.0000213
3945.8	0.0000173
3943.9	0.0000150
3942.0	0.0000003
3940.1	-0.0000328
3938.1	-0.0000518
3936.2	-0.0000432
3934.3	-0.0000137
3932.3	0.0000116
3930.4	-0.0000044
3928.5	-0.0000464
3926.6	-0.0000661
3924.6	-0.0000546
3922.7	-0.0000245
3920.8	0.0000136
3918.8	0.0000321
3916.9	0.0000207
3915.0	0.0000094
3913.1	0.0000043
3911.1	-0.0000119
3909.2	-0.0000174
3907.3	0.0000143
3905.3	0.0000558
3903.4	0.0000682
3901.5	0.0000539
3899.6	0.0000327
3897.6	0.0000120
3895.7	-0.0000049
3893.8	-0.0000116
3891.8	-0.0000105
3889.9	-0.0000009
3888.0	0.0000229
3886.1	0.0000380
3884.1	0.0000392
3882.2	0.0000637
3880.3	0.0000834
3878.3	0.0000573
3876.4	0.0000384
3874.5	0.0000525
3872.6	0.0000814
3870.6	0.0001236
3868.7	0.0001566
3866.8	0.0001902
3864.8	0.0002314
3862.9	0.0002209
3861.0	0.0001419
3859.1	0.0000854
3857.1	0.0002146
3855.2	0.0005490
3853.3	0.0007559
3851.3	0.0005572
3849.4	0.0001959
3847.5	0.0000202
3845.6	0.0000268
3843.6	0.0000657
3841.7	0.0000841
3839.8	0.0000897
3837.8	0.0001141
3835.9	0.0001592
3834.0	0.0001758
3832.1	0.0001491
3830.1	0.0001045
3828.2	0.0000658
3826.3	0.0000387
3824.3	0.0000304
3822.4	0.0000662
3820.5	0.0001011
3818.6	0.0000794
3816.6	0.0000451
3814.7	0.0000268
3812.8	0.0000096
3810.8	0.0000198
3808.9	0.0000839
3807.0	0.0001435
3805.1	0.0001398
3803.1	0.0001279
3801.2	0.0001421
3799.3	0.0001380
3797.3	0.0001137
3795.4	0.0000772
3793.5	0.0000288
3791.6	-0.0000035
3789.6	-0.0000087
3787.7	0.0000029
3785.8	0.0000163
3783.8	0.0000274
3781.9	0.0000463
3780.0	0.0000593
3778.1	0.0000467
3776.1	0.0000224
3774.2	0.0000116
3772.3	0.0000189
3770.3	0.0000304
3768.4	0.0000395
3766.5	0.0000475
3764.6	0.0000518
3762.6	0.0000836
3760.7	0.0001585
3758.8	0.0001960
3756.8	0.0001629
3754.9	0.0001365
3753.0	0.0002180
3751.1	0.0004049
3749.1	0.0005085
3747.2	0.0005389
3745.3	0.0006232
3743.3	0.0005507
3741.4	0.0002789
3739.5	0.0001024
3737.6	0.0001125
3735.6	0.0001906
3733.7	0.0002088
3731.8	0.0001443
3729.8	0.0000948
3727.9	0.0001180
3726.0	0.0001408
3724.1	0.0000976
3722.1	0.0000402
3720.2	0.0000143
3718.3	0.0000151
3716.3	0.0000629
3714.4	0.0002020
3712.5	0.0003330
3710.6	0.0002793
3708.6	0.0001197
3706.7	0.0000274
3704.8	0.0000230
3702.8	0.0000595
3700.9	0.0000681
3699.0	0.0000305
3697.1	-0.0000018
3695.1	0.0000069
3693.2	0.0000629
3691.3	0.0001514
3689.3	0.0002006
3687.4	0.0001489
3685.5	0.0000509
3683.6	-0.0000076
3681.6	-0.0000099
3679.7	0.0000396
3677.8	0.0001728
3675.8	0.0003274
3673.9	0.0003766
3672.0	0.0003547
3670.1	0.0002858
3668.1	0.0001477
3666.2	0.0000379
3664.3	0.0000057
3662.3	0.0000074
3660.4	0.0000475
3658.5	0.0001545
3656.6	0.0002376
3654.6	0.0002205
3652.7	0.0002335
3650.8	0.0003193
3648.8	0.0003271
3646.9	0.0002170
3645.0	0.0000976
3643.1	0.0000456
3641.1	0.0000354
3639.2	0.0000215
3637.3	0.0000131
3635.3	0.0000284
3633.4	0.0000909
3631.5	0.0002191
3629.6	0.0002996
3627.6	0.0002136
3625.7	0.0000748
3623.8	0.0000199
3621.8	0.0000369
3619.9	0.0000783
3618.0	0.0000972
3616.1	0.0000942
3614.1	0.0001224
3612.2	0.0001842
3610.3	0.0002281
3608.3	0.0002084
3606.4	0.0001287
3604.5	0.0000576
3602.6	0.0000379
3600.6	0.0000399
3598.7	0.0000387
3596.8	0.0000422
3594.8	0.0000571
3592.9	0.0000606
3591.0	0.0000487
3589.1	0.0000634
3587.1	0.0000868
3585.2	0.0000655
3583.3	0.0000287
3581.3	0.0000186
3579.4	0.0000194
3577.5	0.0000182
3575.6	0.0000237
3573.6	0.0000319
3571.7	0.0000490
3569.8	0.0000948
3567.8	0.0001411
3565.9	0.0001341
3564.0	0.0000910
3562.1	0.0000656
3560.1	0.0000569
3558.2	0.0000452
3556.3	0.0000313
3554.3	0.0000230
3552.4	0.0000207
3550.5	0.0000211
3548.6	0.0000355
3546.6	0.0000546
3544.7	0.0000515
3542.8	0.0000348
3540.8	0.0000230
3538.9	0.0000158
3537.0	0.0000134
3535.1	0.0000140
3533.1	0.0000156
3531.2	0.0000205
3529.3	0.0000206
3527.3	0.0000154
3525.4	0.0000207
3523.5	0.0000363
3521.6	0.0000413
3519.6	0.0000302
3517.7	0.0000198
3515.8	0.0000166
3513.8	0.0000149
3511.9	0.0000142
3510.0	0.0000129
3508.1	0.0000133
3506.1	0.0000218
3504.2	0.0000311
3502.3	0.0000261
3500.3	0.0000123
3498.4	0.0000038
3496.5	0.0000005
3494.6	0.0000045
3492.6	0.0000138
3490.7	0.0000152
3488.8	0.0000111
3486.8	0.0000152
3484.9	0.0000290
3483.0	0.0000377
3481.1	0.0000272
3479.1	0.0000103
3477.2	0.0000036
3475.3	-0.0000020
3473.3	-0.0000124
3471.4	-0.0000211
3469.5	-0.0000268
3467.6	-0.0000258
3465.6	-0.0000220
3463.7	-0.0000235
3461.8	-0.0000195
3459.8	-0.0000062
3457.9	0.0000010
3456.0	-0.0000032
3454.1	-0.0000102
3452.1	-0.0000109
3450.2	-0.0000012
3448.3	0.0000117
3446.3	0.0000192
3444.4	0.0000254
3442.5	0.0000303
3440.6	0.0000306
3438.6	0.0000246
3436.7	0.0000086
3434.8	-0.0000078
3432.8	-0.0000106
3430.9	-0.0000040
3429.0	0.0000047
3427.1	0.0000099
3425.1	0.0000028
3423.2	-0.0000062
3421.3	-0.0000051
3419.3	-0.0000038
3417.4	-0.0000084
3415.5	-0.0000155
3413.6	-0.0000236
3411.6	-0.0000232
3409.7	-0.0000141
3407.8	-0.0000102
3405.8	-0.0000094
3403.9	-0.0000000
3402.0	0.0000094
3400.1	0.0000115
3398.1	0.0000172
3396.2	0.0000260
3394.3	0.0000243
3392.3	0.0000122
3390.4	0.0000011
3388.5	-0.0000011
3386.6	0.0000025
3384.6	0.0000050
3382.7	0.0000022
3380.8	-0.0000044
3378.8	-0.0000080
3376.9	-0.0000070
3375.0	-0.0000013
3373.1	0.0000060
3371.1	0.0000028
3369.2	-0.0000067
3367.3	-0.0000092
3365.3	-0.0000072
3363.4	-0.0000053
3361.5	0.0000005
3359.6	0.0000086
3357.6	0.0000065
3355.7	-0.0000059
3353.8	-0.0000116
3351.8	-0.0000034
3349.9	0.0000060
3348.0	0.0000003
3346.1	-0.0000163
3344.1	-0.0000228
3342.2	-0.0000150
3340.3	-0.0000064
3338.3	-0.0000014
3336.4	0.0000078
3334.5	0.0000173
3332.6	0.0000138
3330.6	0.0000004
3328.7	-0.0000072
3326.8	-0.0000060
3324.8	-0.0000047
3322.9	-0.0000038
3321.0	0.0000023
3319.1	0.0000083
3317.1	0.0000106
3315.2	0.0000089
3313.3	0.0000028
3311.3	0.0000057
3309.4	0.0000233
3307.5	0.0000352
3305.6	0.0000300
3303.6	0.0000237
3301.7	0.0000301
3299.8	0.0000446
3297.8	0.0000551
3295.9	0.0000577
3294.0	0.0000584
3292.1	0.0000592
3290.1	0.0000532
3288.2	0.0000468
3286.3	0.0000507
3284.3	0.0000561
3282.4	0.0000541
3280.5	0.0000522
3278.6	0.0000603
3276.6	0.0000749
3274.7	0.0000893
3272.8	0.0001033
3270.8	0.0001131
3268.9	0.0001156
3267.0	0.0001142
3265.1	0.0001128
3263.1	0.0001132
3261.2	0.0001103
3259.3	0.0001036
3257.3	0.0001047
3255.4	0.0001141
3253.5	0.0001200
3251.6	0.0001212
3249.6	0.0001232
3247.7	0.0001302
3245.8	0.0001445
3243.8	0.0001586
3241.9	0.0001640
3240.0	0.0001595
3238.1	0.0001510
3236.1	0.0001443
3234.2	0.0001411
3232.3	0.0001446
3230.3	0.0001509
3228.4	0.0001548
3226.5	0.0001603
3224.6	0.0001646
3222.6	0.0001650
3220.7	0.0001673
3218.8	0.0001682
3216.8	0.0001654
3214.9	0.0001611
3213.0	0.0001525
3211.1	0.0001471
3209.1	0.0001543
3207.2	0.0001671
3205.3	0.0001729
3203.3	0.0001651
3201.4	0.0001484
3199.5	0.0001396
3197.6	0.0001462
3195.6	0.0001542
3193.7	0.0001548
3191.8	0.0001570
3189.8	0.0001642
3187.9	0.0001676
3186.0	0.0001662
3184.1	0.0001650
3182.1	0.0001616
3180.2	0.0001514
3178.3	0.0001354
3176.3	0.0001231
3174.4	0.0001223
3172.5	0.0001256
3170.6	0.0001253
3168.6	0.0001277
3166.7	0.0001383
3164.8	0.0001451
3162.8	0.0001368
3160.9	0.0001278
3159.0	0.0001309
3157.1	0.0001355
3155.1	0.0001378
3153.2	0.0001386
3151.3	0.0001305
3149.3	0.0001203
3147.4	0.0001228
3145.5	0.0001349
3143.6	0.0001371
3141.6	0.0001232
3139.7	0.0001144
3137.8	0.0001206
3135.8	0.0001275
3133.9	0.0001285
3132.0	0.0001249
3130.1	0.0001146
3128.1	0.0000992
3126.2	0.0000888
3124.3	0.0000888
3122.3	0.0000928
3120.4	0.0000960
3118.5	0.0000984
3116.6	0.0000980
3114.6	0.0000936
3112.7	0.0000873
3110.8	0.0000780
3108.8	0.0000647
3106.9	0.0000493
3105.0	0.0000392
3103.1	0.0000417
3101.1	0.0000513
3099.2	0.0000530
3097.3	0.0000379
3095.3	0.0000281
3093.4	0.0000469
3091.5	0.0000702
3089.6	0.0000697
3087.6	0.0000533
3085.7	0.0000379
3083.8	0.0000314
3081.8	0.0000322
3079.9	0.0000271
3078.0	0.0000102
3076.1	0.0000062
3074.1	0.0000235
3072.2	0.0000335
3070.3	0.0000276
3068.3	0.0000212
3066.4	0.0000246
3064.5	0.0000340
3062.6	0.0000337
3060.6	0.0000200
3058.7	0.0000071
3056.8	0.0000052
3054.8	0.0000133
3052.9	0.0000254
3051.0	0.0000273
3049.1	0.0000157
3047.1	0.0000090
3045.2	0.0000129
3043.3	0.0000187
3041.3	0.0000225
3039.4	0.0000232
3037.5	0.0000203
3035.6	0.0000178
3033.6	0.0000157
3031.7	0.0000117
3029.8	0.0000053
3027.8	-0.0000032
3025.9	-0.0000125
3024.0	-0.0000136
3022.1	-0.0000117
3020.1	-0.0000380
3018.2	-0.0000850
3016.3	-0.0000973
3014.3	-0.0000661
3012.4	-0.0000374
3010.5	-0.0000290
3008.6	-0.0000253
3006.6	-0.0000141
3004.7	0.0000025
3002.8	0.0000129
3000.8	0.0000123
2998.9	0.0000045
2997.0	-0.0000017
2995.1	-0.0000006
2993.1	0.0000014
2991.2	0.0000008
2989.3	0.0000019
2987.3	0.0000014
2985.4	-0.0000032
2983.5	-0.0000027
2981.6	0.0000022
2979.6	0.0000024
2977.7	0.0000041
2975.8	0.0000104
2973.8	0.0000107
2971.9	0.0000037
2970.0	-0.0000037
2968.1	-0.0000093
2966.1	-0.0000186
2964.2	-0.0000290
2962.3	-0.0000288
2960.3	-0.0000183
2958.4	-0.0000039
2956.5	0.0000086
2954.6	0.0000126
2952.6	0.0000069
2950.7	-0.0000051
2948.8	-0.0000134
2946.8	-0.0000093
2944.9	-0.0000001
2943.0	0.0000046
2941.1	0.0000075
2939.1	0.0000068
2937.2	-0.0000014
2935.3	-0.0000049
2933.3	0.0000024
2931.4	0.0000072
2929.5	0.0000054
2927.6	0.0000058
2925.6	0.0000070
2923.7	0.0000032
2921.8	-0.0000004
2919.8	-0.0000007
2917.9	-0.0000024
2916.0	-0.0000004
2914.1	0.0000112
2912.1	0.0000241
2910.2	0.0000277
2908.3	0.0000207
2906.3	0.0000105
2904.4	0.0000066
2902.5	0.0000128
2900.6	0.0000165
2898.6	0.0000039
2896.7	-0.0000127
2894.8	-0.0000148
2892.8	-0.0000068
2890.9	0.0000010
2889.0	0.0000060
2887.1	0.0000050
2885.1	-0.0000015
2883.2	-0.0000069
2881.3	-0.0000075
2879.3	-0.0000054
2877.4	-0.0000069
2875.5	-0.0000086
2873.6	-0.0000031
2871.6	0.0000072
2869.7	0.0000156
2867.8	0.0000183
2865.8	0.0000201
2863.9	0.0000258
2862.0	0.0000278
2860.1	0.0000241
2858.1	0.0000202
2856.2	0.0000133
2854.3	0.0000061
2852.3	0.0000063
2850.4	0.0000065
2848.5	0.0000018
2846.6	0.0000008
2844.6	0.0000065
2842.7	0.0000132
2840.8	0.0000079
2838.8	-0.0000094
2836.9	-0.0000206
2835.0	-0.0000176
2833.1	-0.0000076
2831.1	0.0000002
2829.2	0.0000011
2827.3	-0.0000013
2825.3	-0.0000038
2823.4	-0.0000062
2821.5	-0.0000092
2819.6	-0.0000110
2817.6	-0.0000077
2815.7	0.0000015
2813.8	0.0000126
2811.8	0.0000181
2809.9	0.0000131
2808.0	0.0000041
2806.1	0.0000020
2804.1	0.0000030
2802.2	0.0000034
2800.3	0.0000071
2798.3	0.0000117
2796.4	0.0000149
2794.5	0.0000184
2792.6	0.0000209
2790.6	0.0000211
2788.7	0.0000203
2786.8	0.0000183
2784.8	0.0000149
2782.9	0.0000138
2781.0	0.0000176
2779.1	0.0000169
2777.1	0.0000045
2775.2	-0.0000045
2773.3	0.0000004
2771.3	0.0000080
2769.4	0.0000110
2767.5	0.0000088
2765.6	0.0000038
2763.6	0.0000010
2761.7	0.0000016
2759.8	0.0000054
2757.8	0.0000056
2755.9	-0.0000022
2754.0	-0.0000064
2752.1	-0.0000022
2750.1	0.0000036
2748.2	0.0000113
2746.3	0.0000222
2744.3	0.0000297
2742.4	0.0000267
2740.5	0.0000153
2738.6	0.0000054
2736.6	0.0000031
2734.7	0.0000048
2732.8	0.0000069
2730.8	0.0000132
2728.9	0.0000188
2727.0	0.0000133
2725.1	0.0000029
2723.1	0.0000029
2721.2	0.0000121
2719.3	0.0000169
2717.3	0.0000166
2715.4	0.0000153
2713.5	0.0000134
2711.6	0.0000161
2709.6	0.0000215
2707.7	0.0000230
2705.8	0.0000247
2703.8	0.0000258
2701.9	0.0000201
2700.0	0.0000148
2698.1	0.0000166
2696.1	0.0000184
2694.2	0.0000163
2692.3	0.0000128
2690.3	0.0000096
2688.4	0.0000092
2686.5	0.0000107
2684.6	0.0000130
2682.6	0.0000159
2680.7	0.0000164
2678.8	0.0000122
2676.8	0.0000059
2674.9	0.0000037
2673.0	0.0000083
2671.1	0.0000118
2669.1	0.0000112
2667.2	0.0000137
2665.3	0.0000191
2663.3	0.0000193
2661.4	0.0000147
2659.5	0.0000132
2657.6	0.0000156
2655.6	0.0000158
2653.7	0.0000099
2651.8	0.0000036
2649.8	0.0000064
2647.9	0.0000157
2646.0	0.0000190
2644.1	0.0000163
2642.1	0.0000164
2640.2	0.0000160
2638.3	0.0000077
2636.3	-0.0000039
2634.4	-0.0000074
2632.5	-0.0000007
2630.6	0.0000030
2628.6	-0.0000003
2626.7	0.0000001
2624.8	0.0000051
2622.8	0.0000065
2620.9	0.0000072
2619.0	0.0000105
2617.1	0.0000091
2615.1	0.0000038
2613.2	0.0000036
2611.3	0.0000071
2609.3	0.0000087
2607.4	0.0000079
2605.5	0.0000077
2603.6	0.0000100
2601.6	0.0000094
2599.7	0.0000005
2597.8	-0.0000058
2595.8	-0.0000027
2593.9	0.0000025
2592.0	0.0000051
2590.1	0.0000034
2588.1	0.0000020
2586.2	0.0000066
2584.3	0.0000122
2582.3	0.0000127
2580.4	0.0000090
2578.5	0.0000060
2576.6	0.0000039
2574.6	0.0000027
2572.7	0.0000062
2570.8	0.0000096
2568.8	0.0000069
2566.9	0.0000052
2565.0	0.0000060
2563.1	0.0000041
2561.1	0.0000024
2559.2	0.0000061
2557.3	0.0000105
2555.3	0.0000067
2553.4	-0.0000019
2551.5	-0.0000065
2549.6	-0.0000053
2547.6	-0.0000006
2545.7	0.0000041
2543.8	0.0000050
2541.8	0.0000019
2539.9	0.0000020
2538.0	0.0000095
2536.1	0.0000157
2534.1	0.0000132
2532.2	0.0000059
2530.3	0.0000046
2528.3	0.0000134
2526.4	0.0000202
2524.5	0.0000139
2522.6	0.0000028
2520.6	-0.0000010
2518.7	0.0000005
2516.8	0.0000022
2514.8	0.0000040
2512.9	0.0000059
2511.0	0.0000073
2509.1	0.0000073
2507.1	0.0000038
2505.2	-0.0000023
2503.3	-0.0000054
2501.3	-0.0000004
2499.4	0.0000076
2497.5	0.0000086
2495.6	0.0000016
2493.6	-0.0000088
2491.7	-0.0000168
2489.8	-0.0000127
2487.8	-0.0000011
2485.9	0.0000014
2484.0	-0.0000039
2482.1	-0.0000043
2480.1	0.0000006
2478.2	0.0000008
2476.3	-0.0000047
2474.3	-0.0000069
2472.4	-0.0000024
2470.5	0.0000056
2468.6	0.0000137
2466.6	0.0000187
2464.7	0.0000170
2462.8	0.0000097
2460.8	-0.0000001
2458.9	-0.0000081
2457.0	-0.0000084
2455.1	-0.0000024
2453.1	0.0000023
2451.2	0.0000004
2449.3	-0.0000043
2447.3	-0.0000045
2445.4	-0.0000030
2443.5	-0.0000059
2441.6	-0.0000088
2439.6	-0.0000088
2437.7	-0.0000083
2435.8	-0.0000060
2433.8	-0.0000009
2431.9	0.0000010
2430.0	-0.0000052
2428.1	-0.0000117
2426.1	-0.0000090
2424.2	-0.0000044
2422.3	-0.0000066
2420.3	-0.0000082
2418.4	-0.0000038
2416.5	0.0000003
2414.6	0.0000026
2412.6	0.0000075
2410.7	0.0000137
2408.8	0.0000145
2406.8	0.0000058
2404.9	-0.0000075
2403.0	-0.0000148
2401.1	-0.0000148
2399.1	-0.0000095
2397.2	-0.0000034
2395.3	-0.0000049
2393.3	-0.0000104
2391.4	-0.0000131
2389.5	-0.0000136
2387.6	-0.0000078
2385.6	0.0000039
2383.7	0.0000096
2381.8	0.0000064
2379.8	-0.0000015
2377.9	-0.0000105
2376.0	-0.0000145
2374.1	-0.0000162
2372.1	-0.0000227
2370.2	-0.0000323
2368.3	-0.0000418
2366.3	-0.0000495
2364.4	-0.0000516
2362.5	-0.0000522
2360.6	-0.0000551
2358.6	-0.0000563
2356.7	-0.0000533
2354.8	-0.0000455
2352.8	-0.0000347
2350.9	-0.0000259
2349.0	-0.0000252
2347.1	-0.0000309
2345.1	-0.0000350
2343.2	-0.0000380
2341.3	-0.0000403
2339.3	-0.0000346
2337.4	-0.0000253
2335.5	-0.0000228
2333.6	-0.0000283
2331.6	-0.0000376
2329.7	-0.0000425
2327.8	-0.0000435
2325.8	-0.0000508
2323.9	-0.0000594
2322.0	-0.0000586
2320.1	-0.0000510
2318.1	-0.0000385
2316.2	-0.0000239
2314.3	-0.0000122
2312.3	-0.0000068
2310.4	-0.0000093
2308.5	-0.0000130
2306.6	-0.0000123
2304.6	-0.0000064
2302.7	-0.0000005
2300.8	-0.0000050
2298.8	-0.0000147
2296.9	-0.0000116
2295.0	0.0000006
2293.1	0.0000025
2291.1	-0.0000010
2289.2	0.0000044
2287.3	0.0000094
2285.3	0.0000042
2283.4	-0.0000041
2281.5	-0.0000088
2279.6	-0.0000087
2277.6	-0.0000028
2275.7	0.0000059
2273.8	0.0000103
2271.8	0.0000065
2269.9	-0.0000002
2268.0	-0.0000029
2266.1	-0.0000016
2264.1	-0.0000011
2262.2	-0.0000019
2260.3	-0.0000011
2258.3	0.0000030
2256.4	0.0000044
2254.5	-0.0000042
2252.6	-0.0000118
2250.6	-0.0000019
2248.7	0.0000160
2246.8	0.0000219
2244.8	0.0000184
2242.9	0.0000169
2241.0	0.0000134
2239.1	0.0000059
2237.1	0.0000042
2235.2	0.0000089
2233.3	0.0000086
2231.3	-0.0000000
2229.4	-0.0000075
2227.5	-0.0000065
2225.6	-0.0000003
2223.6	0.0000040
2221.7	0.0000057
2219.8	0.0000038
2217.8	-0.0000027
2215.9	-0.0000058
2214.0	-0.0000037
2212.1	-0.0000015
2210.1	-0.0000003
2208.2	-0.0000016
2206.3	-0.0000075
2204.3	-0.0000137
2202.4	-0.0000122
2200.5	-0.0000031
2198.6	0.0000033
2196.6	-0.0000010
2194.7	-0.0000108
2192.8	-0.0000119
2190.8	-0.0000021
2188.9	0.0000029
2187.0	-0.0000032
2185.1	-0.0000097
2183.1	-0.0000142
2181.2	-0.0000223
2179.3	-0.0000270
2177.3	-0.0000204
2175.4	-0.0000141
2173.5	-0.0000182
2171.6	-0.0000223
2169.6	-0.0000153
2167.7	-0.0000065
2165.8	-0.0000090
2163.8	-0.0000149
2161.9	-0.0000123
2160.0	-0.0000046
2158.1	0.0000009
2156.1	-0.0000006
2154.2	-0.0000068
2152.3	-0.0000095
2150.3	-0.0000090
2148.4	-0.0000106
2146.5	-0.0000102
2144.6	-0.0000011
2142.6	0.0000103
2140.7	0.0000118
2138.8	0.0000076
2136.8	0.0000088
2134.9	0.0000070
2133.0	-0.0000040
2131.1	-0.0000096
2129.1	-0.0000060
2127.2	-0.0000039
2125.3	-0.0000043
2123.3	-0.0000028
2121.4	-0.0000023
2119.5	-0.0000060
2117.6	-0.0000080
2115.6	-0.0000046
2113.7	-0.0000002
2111.8	-0.0000010
2109.8	-0.0000025
2107.9	0.0000040
2106.0	0.0000124
2104.1	0.0000135
2102.1	0.0000079
2100.2	-0.0000007
2098.3	-0.0000046
2096.3	-0.0000018
2094.4	-0.0000029
2092.5	-0.0000121
2090.6	-0.0000227
2088.6	-0.0000395
2086.7	-0.0000695
2084.8	-0.0000998
2082.8	-0.0001168
2080.9	-0.0001201
2079.0	-0.0001103
2077.1	-0.0000886
2075.1	-0.0000639
2073.2	-0.0000479
2071.3	-0.0000398
2069.3	-0.0000319
2067.4	-0.0000239
2065.5	-0.0000210
2063.6	-0.0000197
2061.6	-0.0000123
2059.7	-0.0000031
2057.8	0.0000004
2055.8	0.0000016
2053.9	0.0000014
2052.0	-0.0000012
2050.1	0.0000000
2048.1	0.0000069
2046.2	0.0000136
2044.3	0.0000152
2042.3	0.0000104
2040.4	0.0000046
2038.5	0.0000043
2036.6	0.0000050
2034.6	-0.0000021
2032.7	-0.0000113
2030.8	-0.0000107
2028.8	-0.0000062
2026.9	-0.0000095
2025.0	-0.0000167
2023.1	-0.0000208
2021.1	-0.0000223
2019.2	-0.0000212
2017.3	-0.0000170
2015.3	-0.0000122
2013.4	-0.0000065
2011.5	-0.0000010
2009.6	-0.0000022
2007.6	-0.0000099
2005.7	-0.0000169
2003.8	-0.0000150
2001.8	-0.0000083
1999.9	-0.0000083
1998.0	-0.0000093
1996.1	0.0000004
1994.1	0.0000147
1992.2	0.0000197
1990.3	0.0000137
1988.3	0.0000044
1986.4	-0.0000025
1984.5	-0.0000057
1982.6	-0.0000063
1980.6	-0.0000044
1978.7	0.0000001
1976.8	0.0000004
1974.8	-0.0000095
1972.9	-0.0000220
1971.0	-0.0000238
1969.1	-0.0000140
1967.1	-0.0000057
1965.2	-0.0000027
1963.3	0.0000007
1961.4	0.0000009
1959.4	-0.0000005
1957.5	0.0000030
1955.6	0.0000011
1953.6	-0.0000101
1951.7	-0.0000159
1949.8	-0.0000114
1947.9	-0.0000026
1945.9	0.0000091
1944.0	0.0000222
1942.1	0.0000271
1940.1	0.0000209
1938.2	0.0000127
1936.3	0.0000061
1934.4	0.0000012
1932.4	0.0000012
1930.5	0.0000028
1928.6	-0.0000024
1926.6	-0.0000090
1924.7	-0.0000037
1922.8	0.0000078
1920.9	0.0000207
1918.9	0.0000353
1917.0	0.0000321
1915.1	0.0000106
1913.1	-0.0000031
1911.2	-0.0000037
1909.3	-0.0000021
1907.4	-0.0000025
1905.4	-0.0000050
1903.5	-0.0000106
1901.6	-0.0000168
1899.6	-0.0000159
1897.7	-0.0000059
1895.8	0.0000052
1893.9	0.0000130
1891.9	0.0000251
1890.0	0.0000369
1888.1	0.0000341
1886.1	0.0000231
1884.2	0.0000130
1882.3	0.0000047
1880.4	0.0000056
1878.4	0.0000132
1876.5	0.0000154
1874.6	0.0000133
1872.6	0.0000322
1870.7	0.0000831
1868.8	0.0001181
1866.9	0.0000971
1864.9	0.0000578
1863.0	0.0000376
1861.1	0.0000297
1859.1	0.0000259
1857.2	0.0000248
1855.3	0.0000250
1853.4	0.0000247
1851.4	0.0000252
1849.5	0.0000351
1847.6	0.0000760
1845.6	0.0001474
1843.7	0.0001673
1841.8	0.0000994
1839.9	0.0000379
1837.9	0.0000294
1836.0	0.0000279
1834.1	0.0000225
1832.1	0.0000437
1830.2	0.0000740
1828.3	0.0000753
1826.4	0.0000666
1824.4	0.0000600
1822.5	0.0000409
1820.6	0.0000245
1818.6	0.0000201
1816.7	0.0000130
1814.8	0.0000050
1812.9	0.0000135
1810.9	0.0000278
1809.0	0.0000229
1807.1	0.0000070
1805.1	0.0000050
1803.2	0.0000250
1801.3	0.0000493
1799.4	0.0000522
1797.4	0.0000424
1795.5	0.0000598
1793.6	0.0001007
1791.6	0.0001000
1789.7	0.0000488
1787.8	0.0000229
1785.9	0.0000424
1783.9	0.0000521
1782.0	0.0000386
1780.1	0.0000252
1778.1	0.0000182
1776.2	0.0000582
1774.3	0.0001715
1772.4	0.0002435
1770.4	0.0001833
1768.5	0.0000852
1766.6	0.0000338
1764.6	0.0000317
1762.7	0.0000623
1760.8	0.0000716
1758.9	0.0000517
1756.9	0.0000364
1755.0	0.0000453
1753.1	0.0000979
1751.1	0.0001432
1749.2	0.0001177
1747.3	0.0000705
1745.4	0.0000551
1743.4	0.0000588
1741.5	0.0000726
1739.6	0.0000830
1737.6	0.0001291
1735.7	0.0002634
1733.8	0.0003317
1731.9	0.0002122
1729.9	0.0000675
1728.0	0.0000153
1726.1	0.0000126
1724.1	0.0000181
1722.2	0.0000435
1720.3	0.0001647
1718.4	0.0003463
1716.4	0.0003788
1714.5	0.0002259
1712.6	0.0000781
1710.6	0.0000246
1708.7	0.0000384
1706.8	0.0000890
1704.9	0.0001437
1702.9	0.0002317
1701.0	0.0003384
1699.1	0.0003552
1697.1	0.0003071
1695.2	0.0002383
1693.3	0.0001240
1691.4	0.0000432
1689.4	0.0000626
1687.5	0.0002179
1685.6	0.0004365
1683.6	0.0004402
1681.7	0.0002198
1679.8	0.0000700
1677.9	0.0000963
1675.9	0.0001714
1674.0	0.0001713
1672.1	0.0001430
1670.1	0.0001487
1668.2	0.0001185
1666.3	0.0000626
1664.4	0.0000635
1662.4	0.0000740
1660.5	0.0000387
1658.6	0.0000227
1656.6	0.0001746
1654.7	0.0005270
1652.8	0.0007084
1650.9	0.0004943
1648.9	0.0002906
1647.0	0.0002890
1645.1	0.0002275
1643.1	0.0000729
1641.2	-0.0000056
1639.3	0.0000338
1637.4	0.0001428
1635.4	0.0001905
1633.5	0.0000944
1631.6	-0.0000149
1629.6	-0.0000309
1627.7	-0.0000081
1625.8	0.0000145
1623.9	0.0000391
1621.9	0.0000455
1620.0	0.0000954
1618.1	0.0002297
1616.1	0.0002688
1614.2	0.0001398
1612.3	0.0000312
1610.4	0.0000147
1608.4	0.0000189
1606.5	0.0000154
1604.6	0.0000090
1602.6	0.0000038
1600.7	0.0000016
1598.8	0.0000074
1596.9	0.0000211
1594.9	0.0000257
1593.0	0.0000124
1591.1	0.0000003
1589.1	-0.0000011
1587.2	-0.0000025
1585.3	-0.0000043
1583.4	0.0000018
1581.4	0.0000208
1579.5	0.0001171
1577.6	0.0003059
1575.6	0.0003709
1573.7	0.0002361
1571.8	0.0001521
1569.9	0.0001700
1567.9	0.0001411
1566.0	0.0000862
1564.1	0.0000971
1562.1	0.0002449
1560.2	0.0004961
1558.3	0.0006008
1556.4	0.0004728
1554.4	0.0003066
1552.5	0.0001918
1550.6	0.0001163
1548.6	0.0000894
1546.7	0.0001261
1544.8	0.0002506
1542.9	0.0004473
1540.9	0.0005920
1539.0	0.0005176
1537.1	0.0003182
1535.1	0.0002369
1533.2	0.0002298
1531.3	0.0001640
1529.4	0.0001107
1527.4	0.0001291
1525.5	0.0001787
1523.6	0.0002587
1521.6	0.0003264
1519.7	0.0002970
1517.8	0.0002101
1515.9	0.0001323
1513.9	0.0000799
1512.0	0.0000889
1510.1	0.0002262
1508.1	0.0004758
1506.2	0.0005830
1504.3	0.0003941
1502.4	0.0001699
1500.4	0.0001208
1498.5	0.0001621
1496.6	0.0001752
1494.6	0.0001505
1492.7	0.0001541
1490.8	0.0001870
1488.9	0.0001758
1486.9	0.0001165
1485.0	0.0000580
1483.1	0.0000212
1481.1	0.0000072
1479.2	0.0000242
1477.3	0.0000762
1475.4	0.0001428
1473.4	0.0001865
1471.5	0.0001549
1469.6	0.0000709
1467.6	0.0000411
1465.7	0.0000505
1463.8	-0.0000070
1461.9	-0.0000554
1459.9	0.0000778
1458.0	0.0002727
1456.1	0.0002452
1454.1	0.0000728
1452.2	0.0000058
1450.3	0.0000369
1448.4	0.0000588
1446.4	0.0000382
1444.5	0.0000018
1442.6	-0.0000073
1440.6	0.0000296
1438.7	0.0001161
1436.8	0.0001782
1434.9	0.0001383
1432.9	0.0000716
1431.0	0.0000556
1429.1	0.0000520
1427.1	0.0000312
1425.2	0.0000040
1423.3	0.0000065
1421.4	0.0000994
1419.4	0.0002042
1417.5	0.0001763
1415.6	0.0000726
1413.6	0.0000108
1411.7	-0.0000131
1409.8	-0.0000264
1407.9	-0.0000215
1405.9	-0.0000009
1404.0	0.0000042
1402.1	0.0000054
1400.1	0.0000321
1398.2	0.0000643
1396.3	0.0000822
1394.4	0.0000638
1392.4	-0.0000015
1390.5	-0.0000581
1388.6	-0.0000735
1386.6	-0.0000751
1384.7	-0.0000764
1382.8	-0.0000663
1380.9	-0.0000453
1378.9	-0.0000255
1377.0	-0.0000065
1375.1	0.0000099
1373.1	0.0000092
1371.2	0.0000019
1369.3	0.0000041
1367.4	0.0000042
1365.4	0.0000073
1363.5	0.0000248
1361.6	0.0000332
1359.6	0.0000215
1357.7	0.0000095
1355.8	0.0000040
1353.9	-0.0000045
1351.9	-0.0000179
1350.0	-0.0000323
1348.1	-0.0000426
1346.1	-0.0000411
1344.2	-0.0000274
1342.3	-0.0000050
1340.4	0.0000209
1338.4	0.0000338
1336.5	0.0000277
1334.6	0.0000177
1332.6	0.0000169
1330.7	0.0000204
1328.8	0.0000156
1326.9	0.0000084
1324.9	0.0000106
1323.0	0.0000161
1321.1	0.0000209
1319.1	0.0000247
1317.2	0.0000216
1315.3	0.0000172
1313.4	0.0000179
1311.4	0.0000177
1309.5	0.0000078
1307.6	-0.0000145
1305.6	-0.0000308
1303.7	-0.0000247
1301.8	-0.0000084
1299.9	0.0000057
1297.9	0.0000142
1296.0	0.0000141
1294.1	0.0000107
1292.1	0.0000108
1290.2	0.0000124
1288.3	0.0000105
1286.4	0.0000047
1284.4	0.0000024
1282.5	0.0000078
1280.6	0.0000149
1278.6	0.0000193
1276.7	0.0000253
1274.8	0.0000312
1272.9	0.0000283
1270.9	0.0000214
1269.0	0.0000247
1267.1	0.0000370
1265.1	0.0000447
1263.2	0.0000406
1261.3	0.0000335
1259.4	0.0000318
1257.4	0.0000323
1255.5	0.0000286
1253.6	0.0000227
1251.6	0.0000187
1249.7	0.0000124
1247.8	-0.0000002
1245.9	-0.0000143
1243.9	-0.0000262
1242.0	-0.0000335
1240.1	-0.0000387
1238.1	-0.0000523
1236.2	-0.0000716
1234.3	-0.0000825
1232.4	-0.0000841
1230.4	-0.0000796
1228.5	-0.0000660
1226.6	-0.0000478
1224.6	-0.0000325
1222.7	-0.0000203
1220.8	-0.0000076
1218.9	0.0000079
1216.9	0.0000202
1215.0	0.0000236
1213.1	0.0000202
1211.1	0.0000218
1209.2	0.0000355
1207.3	0.0000450
1205.4	0.0000385
1203.4	0.0000292
1201.5	0.0000293
1199.6	0.0000353
1197.6	0.0000390
1195.7	0.0000361
1193.8	0.0000268
1191.9	0.0000160
1189.9	0.0000132
1188.0	0.0000202
1186.1	0.0000207
1184.1	0.0000064
1182.2	0.0000099
1180.3	0.0000584
1178.4	0.0000978
1176.4	0.0000730
1174.5	0.0000197
1172.6	-0.0000057
1170.6	0.0000048
1168.7	0.0000233
1166.8	0.0000252
1164.9	0.0000093
1162.9	-0.0000141
1161.0	-0.0000280
1159.1	-0.0000211
1157.1	-0.0000037
1155.2	0.0000052
1153.3	0.0000030
1151.4	0.0000081
1149.4	0.0000243
1147.5	0.0000336
1145.6	0.0000298
1143.6	0.0000255
1141.7	0.0000294
1139.8	0.0000311
1137.9	0.0000241
1135.9	0.0000196
1134.0	0.0000171
1132.1	0.0000038
1130.1	-0.0000077
1128.2	-0.0000018
1126.3	0.0000099
1124.4	0.0000141
1122.4	0.0000046
1120.5	-0.0000162
1118.6	-0.0000279
1116.6	-0.0000193
1114.7	-0.0000036
1112.8	0.0000100
1110.9	0.0000237
1108.9	0.0000281
1107.0	0.0000231
1105.1	0.0000209
1103.1	0.0000181
1101.2	0.0000161
1099.3	0.0000224
1097.4	0.0000309
1095.4	0.0000386
1093.5	0.0000441
1091.6	0.0000378
1089.6	0.0000234
1087.7	0.0000182
1085.8	0.0000240
1083.9	0.0000287
1081.9	0.0000261
1080.0	0.0000179
1078.1	0.0000124
1076.1	0.0000171
1074.2	0.0000252
1072.3	0.0000199
1070.4	0.0000020
1068.4	-0.0000056
1066.5	0.0000022
1064.6	0.0000106
1062.6	0.0000159
1060.7	0.0000162
1058.8	0.0000105
1056.9	0.0000069
1054.9	0.0000033
1053.0	-0.0000036
1051.1	-0.0000055
1049.1	-0.0000006
1047.2	0.0000052
1045.3	0.0000037
1043.4	-0.0000061
1041.4	-0.0000124
1039.5	-0.0000094
1037.6	-0.0000058
1035.6	-0.0000057
1033.7	-0.0000034
1031.8	-0.0000040
1029.9	-0.0000163
1027.9	-0.0000245
1026.0	-0.0000137
1024.1	-0.0000010
1022.1	-0.0000029
1020.2	-0.0000087
1018.3	-0.0000107
1016.4	-0.0000110
1014.4	-0.0000051
1012.5	0.0000036
1010.6	0.0000024
1008.6	-0.0000041
1006.7	-0.0000079
1004.8	-0.0000135
1002.9	-0.0000165
1000.9	-0.0000086
999.0	0.0000050
997.1	0.0000166
995.1	0.0000281
993.2	0.0000373
991.3	0.0000352
989.4	0.0000238
987.4	0.0000153
985.5	0.0000126
983.6	0.0000119
981.6	0.0000116
979.7	0.0000119
977.8	0.0000134
975.9	0.0000171
973.9	0.0000171
972.0	0.0000110
970.1	0.0000122
968.1	0.0000295
966.2	0.0000465
964.3	0.0000492
962.4	0.0000460
960.4	0.0000408
958.5	0.0000258
956.6	0.0000061
954.6	-0.0000055
952.7	-0.0000037
950.8	0.0000087
948.9	0.0000207
946.9	0.0000216
945.0	0.0000184
943.1	0.0000255
941.1	0.0000398
939.2	0.0000470
937.3	0.0000464
935.4	0.0000434
933.4	0.0000342
931.5	0.0000241
929.6	0.0000215
927.6	0.0000220
925.7	0.0000231
923.8	0.0000262
921.9	0.0000281
919.9	0.0000174
918.0	-0.0000031
916.1	-0.0000080
914.1	0.0000038
912.2	0.0000091
910.3	0.0000079
908.4	0.0000126
906.4	0.0000195
904.5	0.0000279
902.6	0.0000373
900.6	0.0000296
898.7	0.0000035
896.8	-0.0000129
894.9	-0.0000085
892.9	0.0000022
891.0	0.0000081
889.1	0.0000037
887.1	-0.0000158
885.2	-0.0000379
883.3	-0.0000404
881.4	-0.0000264
879.4	-0.0000161
877.5	-0.0000065
875.6	0.0000170
873.6	0.0000430
871.7	0.0000509
869.8	0.0000479
867.9	0.0000398
865.9	0.0000240
864.0	0.0000179
862.1	0.0000184
860.1	0.0000033
858.2	-0.0000191
856.3	-0.0000324
854.4	-0.0000335
852.4	-0.0000189
850.5	-0.0000012
848.6	0.0000080
846.6	0.0000231
844.7	0.0000408
842.8	0.0000406
840.9	0.0000283
838.9	0.0000212
837.0	0.0000180
835.1	0.0000030
833.1	-0.0000136
831.2	-0.0000024
829.3	0.0000167
827.4	0.0000094
825.4	0.0000073
823.5	0.0000341
821.6	0.0000498
819.6	0.0000430
817.7	0.0000381
815.8	0.0000218
813.9	-0.0000248
811.9	-0.0000649
810.0	-0.0000663
808.1	-0.0000597
806.1	-0.0000589
804.2	-0.0000367
802.3	-0.0000039
800.4	0.0000070
798.4	-0.0000075
796.5	-0.0000249
794.6	-0.0000227
792.6	-0.0000106
790.7	-0.0000142
788.8	-0.0000371
786.9	-0.0000714
784.9	-0.0000969
783.0	-0.0000908
781.1	-0.0000534
779.1	-0.0000119
777.2	-0.0000024
775.3	-0.0000084
773.4	0.0000128
771.4	0.0000231
769.5	-0.0000227
767.6	-0.0000859
765.6	-0.0001361
763.7	-0.0001753
761.8	-0.0001748
759.9	-0.0001229
757.9	-0.0000758
756.0	-0.0000849
754.1	-0.0001295
752.1	-0.0001445
750.2	-0.0001214
748.3	-0.0001143
746.4	-0.0000860
744.4	0.0000027
742.5	0.0000557
740.6	0.0000286
738.6	-0.0000093
736.7	-0.0000406
734.8	-0.0000990
732.9	-0.0001036
730.9	0.0000216
729.0	0.0001054
727.1	0.0000262
725.1	-0.0000590
723.2	-0.0000569
721.3	-0.0000672
719.4	-0.0001032
717.4	-0.0000647
715.5	0.0000372
713.6	0.0000726
711.6	0.0000522
709.7	0.0000644
707.8	-0.0000087
705.9	-0.0002165
703.9	-0.0003382
702.0	-0.0002241
700.1	-0.0000305
698.1	-0.0000294
696.2	-0.0001772
694.3	-0.0001859
692.4	0.0000161
690.4	0.0001912
688.5	0.0001358
686.6	-0.0000186
684.6	-0.0000713
682.7	-0.0000908
680.8	-0.0002020
678.9	-0.0003071
676.9	-0.0002044
675.0	0.0000838
673.1	0.0003024
671.1	0.0003298
669.2	0.0002448
667.3	0.0000890
665.4	-0.0000767
663.4	-0.0000086
661.5	0.0003382
659.6	0.0004727
657.6	0.0001759
655.7	-0.0002004
653.8	-0.0004758
651.9	-0.0006560
649.9	-0.0006912
