3997.9	-0.0000174
3996.0	-0.0000136
3994.1	-0.0000056
3992.1	-0.0000048
3990.2	0.0000027
3988.3	0.0000182
3986.3	0.0000245
3984.4	0.0000253
3982.5	0.0000302
3980.6	0.0000312
3978.6	0.0000214
3976.7	0.0000040
3974.8	-0.0000073
3972.8	-0.0000029
3970.9	0.0000051
3969.0	0.0000098
3967.1	0.0000156
3965.1	0.0000157
3963.2	0.0000020
3961.3	-0.0000162
3959.3	-0.0000227
3957.4	-0.0000216
3955.5	-0.0000224
3953.6	-0.0000177
3951.6	-0.0000045
3949.7	0.0000111
3947.8	0.0000207
3945.8	0.0000250
3943.9	0.0000322
3942.0	0.0000323
3940.1	0.0000209
3938.1	0.0000140
3936.2	0.0000160
3934.3	0.0000263
3932.3	0.0000385
3930.4	0.0000344
3928.5	0.0000163
3926.6	-0.0000006
3924.6	-0.0000090
3922.7	0.0000011
3920.8	0.0000259
3918.8	0.0000407
3916.9	0.0000443
3915.0	0.0000535
3913.1	0.0000593
3911.1	0.0000566
3909.2	0.0000602
3907.3	0.0000589
3905.3	0.0000309
3903.4	-0.0000059
3901.5	-0.0000221
3899.6	-0.0000137
3897.6	0.0000085
3895.7	0.0000249
3893.8	0.0000140
3891.8	-0.0000046
3889.9	0.0000048
3888.0	0.0000138
3886.1	-0.0000037
3884.1	0.0000012
3882.2	0.0000456
3880.3	0.0000795
3878.3	0.0000802
3876.4	0.0000724
3874.5	0.0000693
3872.6	0.0000562
3870.6	0.0000438
3868.7	0.0000630
3866.8	0.0001015
3864.8	0.0001310
3862.9	0.0001416
3861.0	0.0001278
3859.1	0.0001004
3857.1	0.0000910
3855.2	0.0001288
3853.3	0.0001889
3851.3	0.0001838
3849.4	0.0001100
3847.5	0.0000614
3845.6	0.0000534
3843.6	0.0000444
3841.7	0.0000130
3839.8	-0.0000482
3837.8	-0.0000672
3835.9	0.0000021
3834.0	0.0000663
3832.1	0.0000676
3830.1	0.0000471
3828.2	0.0000334
3826.3	0.0000200
3824.3	-0.0000093
3822.4	-0.0000347
3820.5	-0.0000342
3818.6	-0.0000585
3816.6	-0.0001013
3814.7	-0.0000752
3812.8	-0.0000031
3810.8	0.0000282
3808.9	0.0000147
3807.0	0.0000054
3805.1	-0.0000026
3803.1	-0.0000432
3801.2	-0.0000628
3799.3	-0.0000215
3797.3	0.0000180
3795.4	0.0000238
3793.5	0.0000153
3791.6	0.0000059
3789.6	-0.0000006
3787.7	-0.0000067
3785.8	-0.0000104
3783.8	-0.0000068
3781.9	-0.0000024
3780.0	-0.0000015
3778.1	0.0000111
3776.1	0.0000304
3774.2	0.0000209
3772.3	-0.0000181
3770.3	-0.0000388
3768.4	-0.0000221
3766.5	-0.0000012
3764.6	0.0000050
3762.6	0.0000086
3760.7	0.0000172
3758.8	0.0000238
3756.8	0.0000118
3754.9	-0.0000420
3753.0	-0.0000879
3751.1	-0.0000338
3749.1	0.0000564
3747.2	0.0000904
3745.3	0.0001100
3743.3	0.0001132
3741.4	0.0000598
3739.5	-0.0000243
3737.6	-0.0000811
3735.6	-0.0000718
3733.7	-0.0000401
3731.8	-0.0000289
3729.8	-0.0000147
3727.9	0.0000118
3726.0	0.0000279
3724.1	0.0000138
3722.1	-0.0000142
3720.2	-0.0000214
3718.3	-0.0000100
3716.3	0.0000052
3714.4	0.0000380
3712.5	0.0000644
3710.6	0.0000365
3708.6	-0.0000078
3706.7	-0.0000168
3704.8	-0.0000058
3702.8	0.0000066
3700.9	0.0000180
3699.0	0.0000194
3697.1	0.0000056
3695.1	-0.0000082
3693.2	-0.0000089
3691.3	-0.0000212
3689.3	-0.0000513
3687.4	-0.0000527
3685.5	-0.0000232
3683.6	-0.0000126
3681.6	-0.0000253
3679.7	-0.0000431
3677.8	-0.0000452
3675.8	0.0000005
3673.9	0.0000589
3672.0	0.0000594
3670.1	0.0000094
3668.1	-0.0000218
3666.2	-0.0000117
3664.3	0.0000004
3662.3	-0.0000013
3660.4	0.0000070
3658.5	0.0000421
3656.6	0.0000716
3654.6	0.0000621
3652.7	0.0000383
3650.8	0.0000204
3648.8	0.0000068
3646.9	0.0000044
3645.0	0.0000116
3643.1	0.0000206
3641.1	0.0000177
3639.2	-0.0000022
3637.3	-0.0000229
3635.3	-0.0000312
3633.4	-0.0000175
3631.5	0.0000103
3629.6	0.0000100
3627.6	-0.0000208
3625.7	-0.0000333
3623.8	-0.0000252
3621.8	-0.0000274
3619.9	-0.0000314
3618.0	-0.0000229
3616.1	-0.0000111
3614.1	0.0000077
3612.2	0.0000350
3610.3	0.0000499
3608.3	0.0000397
3606.4	0.0000107
3604.5	-0.0000133
3602.6	-0.0000163
3600.6	-0.0000103
3598.7	-0.0000082
3596.8	-0.0000104
3594.8	-0.0000024
3592.9	0.0000092
3591.0	-0.0000058
3589.1	-0.0000282
3587.1	-0.0000224
3585.2	-0.0000096
3583.3	-0.0000135
3581.3	-0.0000204
3579.4	-0.0000171
3577.5	-0.0000048
3575.6	0.0000113
3573.6	0.0000185
3571.7	0.0000108
3569.8	0.0000026
3567.8	0.0000033
3565.9	0.0000042
3564.0	0.0000066
3562.1	0.0000170
3560.1	0.0000239
3558.2	0.0000241
3556.3	0.0000221
3554.3	0.0000126
3552.4	-0.0000001
3550.5	-0.0000002
3548.6	0.0000131
3546.6	0.0000192
3544.7	0.0000156
3542.8	0.0000196
3540.8	0.0000236
3538.9	0.0000119
3537.0	0.0000015
3535.1	0.0000043
3533.1	0.0000046
3531.2	-0.0000003
3529.3	-0.0000028
3527.3	-0.0000059
3525.4	-0.0000066
3523.5	0.0000013
3521.6	0.0000066
3519.6	0.0000008
3517.7	-0.0000018
3515.8	0.0000064
3513.8	0.0000188
3511.9	0.0000280
3510.0	0.0000309
3508.1	0.0000302
3506.1	0.0000243
3504.2	0.0000189
3502.3	0.0000229
3500.3	0.0000308
3498.4	0.0000301
3496.5	0.0000160
3494.6	0.0000052
3492.6	0.0000093
3490.7	0.0000097
3488.8	0.0000038
3486.8	0.0000136
3484.9	0.0000349
3483.0	0.0000395
3481.1	0.0000230
3479.1	0.0000105
3477.2	0.0000153
3475.3	0.0000138
3473.3	-0.0000024
3471.4	-0.0000028
3469.5	0.0000152
3467.6	0.0000280
3465.6	0.0000292
3463.7	0.0000235
3461.8	0.0000209
3459.8	0.0000242
3457.9	0.0000267
3456.0	0.0000267
3454.1	0.0000262
3452.1	0.0000247
3450.2	0.0000258
3448.3	0.0000401
3446.3	0.0000626
3444.4	0.0000759
3442.5	0.0000739
3440.6	0.0000660
3438.6	0.0000605
3436.7	0.0000538
3434.8	0.0000470
3432.8	0.0000459
3430.9	0.0000516
3429.0	0.0000643
3427.1	0.0000770
3425.1	0.0000794
3423.2	0.0000723
3421.3	0.0000593
3419.3	0.0000464
3417.4	0.0000487
3415.5	0.0000586
3413.6	0.0000560
3411.6	0.0000517
3409.7	0.0000624
3407.8	0.0000770
3405.8	0.0000764
3403.9	0.0000638
3402.0	0.0000575
3400.1	0.0000705
3398.1	0.0000974
3396.2	0.0001105
3394.3	0.0001001
3392.3	0.0000841
3390.4	0.0000737
3388.5	0.0000684
3386.6	0.0000658
3384.6	0.0000687
3382.7	0.0000744
3380.8	0.0000776
3378.8	0.0000833
3376.9	0.0000899
3375.0	0.0000933
3373.1	0.0000913
3371.1	0.0000803
3369.2	0.0000741
3367.3	0.0000829
3365.3	0.0000902
3363.4	0.0000840
3361.5	0.0000736
3359.6	0.0000710
3357.6	0.0000730
3355.7	0.0000676
3353.8	0.0000584
3351.8	0.0000619
3349.9	0.0000733
3348.0	0.0000742
3346.1	0.0000649
3344.1	0.0000584
3342.2	0.0000665
3340.3	0.0000840
3338.3	0.0000894
3336.4	0.0000834
3334.5	0.0000846
3332.6	0.0000895
3330.6	0.0000857
3328.7	0.0000776
3326.8	0.0000692
3324.8	0.0000586
3322.9	0.0000569
3321.0	0.0000722
3319.1	0.0000927
3317.1	0.0001070
3315.2	0.0001137
3313.3	0.0001120
3311.3	0.0001006
3309.4	0.0000872
3307.5	0.0000770
3305.6	0.0000716
3303.6	0.0000801
3301.7	0.0000978
3299.8	0.0001090
3297.8	0.0001154
3295.9	0.0001222
3294.0	0.0001233
3292.1	0.0001173
3290.1	0.0001111
3288.2	0.0001120
3286.3	0.0001192
3284.3	0.0001248
3282.4	0.0001236
3280.5	0.0001155
3278.6	0.0001079
3276.6	0.0001127
3274.7	0.0001281
3272.8	0.0001425
3270.8	0.0001489
3268.9	0.0001479
3267.0	0.0001391
3265.1	0.0001261
3263.1	0.0001202
3261.2	0.0001198
3259.3	0.0001197
3257.3	0.0001317
3255.4	0.0001538
3253.5	0.0001628
3251.6	0.0001508
3249.6	0.0001360
3247.7	0.0001406
3245.8	0.0001630
3243.8	0.0001800
3241.9	0.0001781
3240.0	0.0001663
3238.1	0.0001579
3236.1	0.0001523
3234.2	0.0001464
3232.3	0.0001493
3230.3	0.0001618
3228.4	0.0001715
3226.5	0.0001713
3224.6	0.0001607
3222.6	0.0001485
3220.7	0.0001478
3218.8	0.0001556
3216.8	0.0001590
3214.9	0.0001553
3213.0	0.0001488
3211.1	0.0001407
3209.1	0.0001372
3207.2	0.0001432
3205.3	0.0001470
3203.3	0.0001351
3201.4	0.0001117
3199.5	0.0000956
3197.6	0.0001002
3195.6	0.0001142
3193.7	0.0001221
3191.8	0.0001292
3189.8	0.0001357
3187.9	0.0001372
3186.0	0.0001382
3184.1	0.0001348
3182.1	0.0001240
3180.2	0.0001154
3178.3	0.0001109
3176.3	0.0001068
3174.4	0.0001031
3172.5	0.0001032
3170.6	0.0001086
3168.6	0.0001114
3166.7	0.0001094
3164.8	0.0001044
3162.8	0.0000970
3160.9	0.0000965
3159.0	0.0001031
3157.1	0.0001082
3155.1	0.0001120
3153.2	0.0001106
3151.3	0.0001022
3149.3	0.0000957
3147.4	0.0000983
3145.5	0.0001024
3143.6	0.0000906
3141.6	0.0000660
3139.7	0.0000556
3137.8	0.0000658
3135.8	0.0000772
3133.9	0.0000803
3132.0	0.0000765
3130.1	0.0000653
3128.1	0.0000543
3126.2	0.0000484
3124.3	0.0000409
3122.3	0.0000322
3120.4	0.0000301
3118.5	0.0000364
3116.6	0.0000406
3114.6	0.0000337
3112.7	0.0000243
3110.8	0.0000189
3108.8	0.0000121
3106.9	0.0000005
3105.0	-0.0000076
3103.1	-0.0000018
3101.1	0.0000154
3099.2	0.0000253
3097.3	0.0000132
3095.3	-0.0000033
3093.4	0.0000011
3091.5	0.0000166
3089.6	0.0000205
3087.6	0.0000115
3085.7	0.0000032
3083.8	0.0000030
3081.8	0.0000075
3079.9	0.0000096
3078.0	-0.0000005
3076.1	-0.0000135
3074.1	-0.0000109
3072.2	-0.0000045
3070.3	-0.0000092
3068.3	-0.0000101
3066.4	0.0000032
3064.5	0.0000148
3062.6	0.0000085
3060.6	-0.0000078
3058.7	-0.0000136
3056.8	-0.0000059
3054.8	0.0000041
3052.9	0.0000122
3051.0	0.0000176
3049.1	0.0000163
3047.1	0.0000114
3045.2	0.0000044
3043.3	-0.0000038
3041.3	-0.0000076
3039.4	-0.0000074
3037.5	-0.0000081
3035.6	-0.0000076
3033.6	-0.0000029
3031.7	0.0000028
3029.8	0.0000049
3027.8	0.0000017
3025.9	-0.0000022
3024.0	-0.0000016
3022.1	-0.0000058
3020.1	-0.0000310
3018.2	-0.0000664
3016.3	-0.0000768
3014.3	-0.0000568
3012.4	-0.0000363
3010.5	-0.0000299
3008.6	-0.0000284
3006.6	-0.0000229
3004.7	-0.0000154
3002.8	-0.0000076
3000.8	-0.0000015
2998.9	-0.0000062
2997.0	-0.0000123
2995.1	-0.0000029
2993.1	0.0000079
2991.2	0.0000063
2989.3	0.0000007
2987.3	-0.0000051
2985.4	-0.0000100
2983.5	-0.0000075
2981.6	-0.0000020
2979.6	-0.0000025
2977.7	-0.0000028
2975.8	0.0000047
2973.8	0.0000126
2971.9	0.0000127
2970.0	0.0000087
2968.1	0.0000057
2966.1	0.0000008
2964.2	0.0000008
2962.3	0.0000123
2960.3	0.0000252
2958.4	0.0000340
2956.5	0.0000436
2954.6	0.0000540
2952.6	0.0000574
2950.7	0.0000483
2948.8	0.0000352
2946.8	0.0000301
2944.9	0.0000286
2943.0	0.0000239
2941.1	0.0000241
2939.1	0.0000279
2937.2	0.0000257
2935.3	0.0000241
2933.3	0.0000292
2931.4	0.0000320
2929.5	0.0000284
2927.6	0.0000268
2925.6	0.0000303
2923.7	0.0000306
2921.8	0.0000255
2919.8	0.0000218
2917.9	0.0000212
2916.0	0.0000261
2914.1	0.0000377
2912.1	0.0000454
2910.2	0.0000420
2908.3	0.0000360
2906.3	0.0000319
2904.4	0.0000246
2902.5	0.0000177
2900.6	0.0000138
2898.6	0.0000054
2896.7	-0.0000026
2894.8	-0.0000023
2892.8	0.0000020
2890.9	0.0000058
2889.0	0.0000080
2887.1	0.0000071
2885.1	0.0000006
2883.2	-0.0000085
2881.3	-0.0000120
2879.3	-0.0000120
2877.4	-0.0000155
2875.5	-0.0000190
2873.6	-0.0000145
2871.6	-0.0000037
2869.7	0.0000048
2867.8	0.0000092
2865.8	0.0000141
2863.9	0.0000199
2862.0	0.0000210
2860.1	0.0000205
2858.1	0.0000270
2856.2	0.0000318
2854.3	0.0000275
2852.3	0.0000270
2850.4	0.0000331
2848.5	0.0000324
2846.6	0.0000240
2844.6	0.0000180
2842.7	0.0000169
2840.8	0.0000122
2838.8	0.0000015
2836.9	-0.0000047
2835.0	-0.0000016
2833.1	0.0000061
2831.1	0.0000119
2829.2	0.0000110
2827.3	0.0000024
2825.3	-0.0000117
2823.4	-0.0000206
2821.5	-0.0000165
2819.6	-0.0000076
2817.6	-0.0000026
2815.7	-0.0000010
2813.8	-0.0000006
2811.8	-0.0000004
2809.9	-0.0000018
2808.0	-0.0000052
2806.1	-0.0000072
2804.1	-0.0000088
2802.2	-0.0000077
2800.3	-0.0000020
2798.3	-0.0000007
2796.4	-0.0000022
2794.5	0.0000017
2792.6	0.0000070
2790.6	0.0000108
2788.7	0.0000141
2786.8	0.0000129
2784.8	0.0000062
2782.9	0.0000013
2781.0	-0.0000029
2779.1	-0.0000103
2777.1	-0.0000149
2775.2	-0.0000114
2773.3	-0.0000040
2771.3	0.0000019
2769.4	0.0000037
2767.5	0.0000019
2765.6	0.0000033
2763.6	0.0000071
2761.7	0.0000046
2759.8	-0.0000013
2757.8	-0.0000053
2755.9	-0.0000097
2754.0	-0.0000125
2752.1	-0.0000099
2750.1	-0.0000046
2748.2	0.0000015
2746.3	0.0000099
2744.3	0.0000195
2742.4	0.0000254
2740.5	0.0000181
2738.6	0.0000003
2736.6	-0.0000114
2734.7	-0.0000113
2732.8	-0.0000065
2730.8	-0.0000014
2728.9	-0.0000006
2727.0	-0.0000093
2725.1	-0.0000185
2723.1	-0.0000121
2721.2	0.0000031
2719.3	0.0000075
2717.3	0.0000016
2715.4	-0.0000057
2713.5	-0.0000140
2711.6	-0.0000174
2709.6	-0.0000112
2707.7	-0.0000040
2705.8	-0.0000010
2703.8	-0.0000000
2701.9	-0.0000020
2700.0	-0.0000063
2698.1	-0.0000090
2696.1	-0.0000108
2694.2	-0.0000104
2692.3	-0.0000108
2690.3	-0.0000213
2688.4	-0.0000323
2686.5	-0.0000287
2684.6	-0.0000171
2682.6	-0.0000096
2680.7	-0.0000064
2678.8	-0.0000083
2676.8	-0.0000132
2674.9	-0.0000085
2673.0	0.0000073
2671.1	0.0000157
2669.1	0.0000096
2667.2	0.0000025
2665.3	0.0000019
2663.3	-0.0000002
2661.4	-0.0000061
2659.5	-0.0000066
2657.6	0.0000010
2655.6	0.0000078
2653.7	0.0000063
2651.8	-0.0000002
2649.8	-0.0000034
2647.9	-0.0000053
2646.0	-0.0000104
2644.1	-0.0000113
2642.1	-0.0000027
2640.2	0.0000036
2638.3	0.0000001
2636.3	-0.0000067
2634.4	-0.0000103
2632.5	-0.0000097
2630.6	-0.0000084
2628.6	-0.0000090
2626.7	-0.0000094
2624.8	-0.0000065
2622.8	-0.0000031
2620.9	-0.0000034
2619.0	-0.0000061
2617.1	-0.0000063
2615.1	-0.0000042
2613.2	-0.0000057
2611.3	-0.0000127
2609.3	-0.0000211
2607.4	-0.0000264
2605.5	-0.0000227
2603.6	-0.0000133
2601.6	-0.0000092
2599.7	-0.0000138
2597.8	-0.0000244
2595.8	-0.0000323
2593.9	-0.0000283
2592.0	-0.0000194
2590.1	-0.0000176
2588.1	-0.0000189
2586.2	-0.0000147
2584.3	-0.0000079
2582.3	-0.0000058
2580.4	-0.0000072
2578.5	-0.0000083
2576.6	-0.0000088
2574.6	-0.0000053
2572.7	0.0000046
2570.8	0.0000119
2568.8	0.0000108
2566.9	0.0000079
2565.0	0.0000034
2563.1	-0.0000041
2561.1	-0.0000058
2559.2	0.0000003
2557.3	0.0000074
2555.3	0.0000101
2553.4	0.0000064
2551.5	-0.0000025
2549.6	-0.0000067
2547.6	-0.0000031
2545.7	-0.0000013
2543.8	-0.0000012
2541.8	0.0000059
2539.9	0.0000152
2538.0	0.0000172
2536.1	0.0000116
2534.1	0.0000016
2532.2	-0.0000100
2530.3	-0.0000149
2528.3	-0.0000078
2526.4	0.0000033
2524.5	0.0000085
2522.6	0.0000054
2520.6	-0.0000020
2518.7	-0.0000066
2516.8	-0.0000088
2514.8	-0.0000088
2512.9	-0.0000007
2511.0	0.0000092
2509.1	0.0000097
2507.1	0.0000031
2505.2	-0.0000005
2503.3	0.0000015
2501.3	0.0000023
2499.4	0.0000017
2497.5	0.0000021
2495.6	0.0000032
2493.6	0.0000081
2491.7	0.0000140
2489.8	0.0000176
2487.8	0.0000206
2485.9	0.0000180
2484.0	0.0000064
2482.1	-0.0000033
2480.1	-0.0000025
2478.2	0.0000002
2476.3	-0.0000015
2474.3	-0.0000030
2472.4	-0.0000039
2470.5	-0.0000029
2468.6	0.0000042
2466.6	0.0000113
2464.7	0.0000134
2462.8	0.0000113
2460.8	0.0000049
2458.9	0.0000002
2457.0	0.0000028
2455.1	0.0000051
2453.1	0.0000026
2451.2	0.0000006
2449.3	-0.0000013
2447.3	-0.0000044
2445.4	-0.0000041
2443.5	-0.0000011
2441.6	-0.0000005
2439.6	-0.0000035
2437.7	-0.0000066
2435.8	-0.0000051
2433.8	0.0000024
2431.9	0.0000091
2430.0	0.0000058
2428.1	-0.0000015
2426.1	0.0000005
2424.2	0.0000054
2422.3	0.0000026
2420.3	-0.0000013
2418.4	-0.0000013
2416.5	-0.0000023
2414.6	-0.0000051
2412.6	-0.0000043
2410.7	0.0000017
2408.8	0.0000045
2406.8	-0.0000030
2404.9	-0.0000127
2403.0	-0.0000158
2401.1	-0.0000137
2399.1	-0.0000068
2397.2	-0.0000002
2395.3	-0.0000033
2393.3	-0.0000094
2391.4	-0.0000089
2389.5	-0.0000052
2387.6	0.0000001
2385.6	0.0000065
2383.7	0.0000072
2381.8	0.0000022
2379.8	-0.0000035
2377.9	-0.0000066
2376.0	-0.0000062
2374.1	-0.0000090
2372.1	-0.0000212
2370.2	-0.0000410
2368.3	-0.0000587
2366.3	-0.0000626
2364.4	-0.0000548
2362.5	-0.0000490
2360.6	-0.0000475
2358.6	-0.0000434
2356.7	-0.0000361
2354.8	-0.0000257
2352.8	-0.0000127
2350.9	-0.0000045
2349.0	-0.0000091
2347.1	-0.0000207
2345.1	-0.0000272
2343.2	-0.0000283
2341.3	-0.0000273
2339.3	-0.0000222
2337.4	-0.0000171
2335.5	-0.0000214
2333.6	-0.0000332
2331.6	-0.0000399
2329.7	-0.0000345
2327.8	-0.0000272
2325.8	-0.0000325
2323.9	-0.0000454
2322.0	-0.0000510
2320.1	-0.0000434
2318.1	-0.0000242
2316.2	-0.0000065
2314.3	-0.0000028
2312.3	-0.0000068
2310.4	-0.0000100
2308.5	-0.0000114
2306.6	-0.0000123
2304.6	-0.0000103
2302.7	-0.0000047
2300.8	-0.0000026
2298.8	-0.0000053
2296.9	-0.0000044
2295.0	0.0000002
2293.1	-0.0000011
2291.1	-0.0000051
2289.2	-0.0000023
2287.3	0.0000037
2285.3	0.0000084
2283.4	0.0000093
2281.5	0.0000028
2279.6	-0.0000062
2277.6	-0.0000091
2275.7	-0.0000063
2273.8	-0.0000028
2271.8	0.0000001
2269.9	0.0000022
2268.0	0.0000019
2266.1	0.0000002
2264.1	-0.0000011
2262.2	-0.0000028
2260.3	-0.0000072
2258.3	-0.0000120
2256.4	-0.0000119
2254.5	-0.0000132
2252.6	-0.0000182
2250.6	-0.0000117
2248.7	0.0000062
2246.8	0.0000114
2244.8	0.0000000
2242.9	-0.0000094
2241.0	-0.0000147
2239.1	-0.0000235
2237.1	-0.0000279
2235.2	-0.0000218
2233.3	-0.0000134
2231.3	-0.0000093
2229.4	-0.0000105
2227.5	-0.0000142
2225.6	-0.0000135
2223.6	-0.0000092
2221.7	-0.0000062
2219.8	-0.0000050
2217.8	-0.0000056
2215.9	-0.0000062
2214.0	-0.0000060
2212.1	-0.0000075
2210.1	-0.0000103
2208.2	-0.0000129
2206.3	-0.0000176
2204.3	-0.0000241
2202.4	-0.0000270
2200.5	-0.0000230
2198.6	-0.0000165
2196.6	-0.0000150
2194.7	-0.0000178
2192.8	-0.0000146
2190.8	-0.0000037
2188.9	-0.0000012
2187.0	-0.0000100
2185.1	-0.0000135
2183.1	-0.0000110
2181.2	-0.0000141
2179.3	-0.0000170
2177.3	-0.0000108
2175.4	-0.0000050
2173.5	-0.0000079
2171.6	-0.0000099
2169.6	-0.0000078
2167.7	-0.0000123
2165.8	-0.0000225
2163.8	-0.0000254
2161.9	-0.0000212
2160.0	-0.0000162
2158.1	-0.0000115
2156.1	-0.0000126
2154.2	-0.0000188
2152.3	-0.0000183
2150.3	-0.0000137
2148.4	-0.0000124
2146.5	-0.0000077
2144.6	0.0000005
2142.6	0.0000026
2140.7	-0.0000034
2138.8	-0.0000081
2136.8	-0.0000049
2134.9	-0.0000000
2133.0	-0.0000013
2131.1	-0.0000054
2129.1	-0.0000080
2127.2	-0.0000106
2125.3	-0.0000123
2123.3	-0.0000095
2121.4	-0.0000051
2119.5	-0.0000029
2117.6	-0.0000006
2115.6	0.0000036
2113.7	0.0000062
2111.8	0.0000048
2109.8	0.0000005
2107.9	-0.0000035
2106.0	-0.0000042
2104.1	-0.0000006
2102.1	0.0000034
2100.2	0.0000021
2098.3	-0.0000021
2096.3	-0.0000049
2094.4	-0.0000081
2092.5	-0.0000128
2090.6	-0.0000207
2088.6	-0.0000413
2086.7	-0.0000745
2084.8	-0.0001048
2082.8	-0.0001235
2080.9	-0.0001342
2079.0	-0.0001355
2077.1	-0.0001228
2075.1	-0.0001018
2073.2	-0.0000857
2071.3	-0.0000793
2069.3	-0.0000786
2067.4	-0.0000770
2065.5	-0.0000680
2063.6	-0.0000485
2061.6	-0.0000176
2059.7	0.0000229
2057.8	0.0000735
2055.8	0.0001395
2053.9	0.0002158
2052.0	0.0002891
2050.1	0.0003627
2048.1	0.0004442
2046.2	0.0005209
2044.3	0.0005792
2042.3	0.0006190
2040.4	0.0006483
2038.5	0.0006764
2036.6	0.0006984
2034.6	0.0007036
2032.7	0.0007011
2030.8	0.0007017
2028.8	0.0006968
2026.9	0.0006771
2025.0	0.0006501
2023.1	0.0006248
2021.1	0.0005982
2019.2	0.0005674
2017.3	0.0005377
2015.3	0.0005109
2013.4	0.0004839
2011.5	0.0004562
2009.6	0.0004244
2007.6	0.0003866
2005.7	0.0003504
2003.8	0.0003230
2001.8	0.0003008
1999.9	0.0002776
1998.0	0.0002545
1996.1	0.0002309
1994.1	0.0002022
1992.2	0.0001707
1990.3	0.0001452
1988.3	0.0001264
1986.4	0.0001095
1984.5	0.0000951
1982.6	0.0000821
1980.6	0.0000687
1978.7	0.0000585
1976.8	0.0000500
1974.8	0.0000391
1972.9	0.0000299
1971.0	0.0000232
1969.1	0.0000129
1967.1	0.0000047
1965.2	0.0000082
1963.3	0.0000120
1961.4	0.0000045
1959.4	0.0000001
1957.5	0.0000067
1955.6	0.0000072
1953.6	0.0000003
1951.7	-0.0000002
1949.8	0.0000031
1947.9	0.0000039
1945.9	0.0000049
1944.0	0.0000069
1942.1	0.0000094
1940.1	0.0000113
1938.2	0.0000093
1936.3	0.0000040
1934.4	0.0000022
1932.4	0.0000099
1930.5	0.0000190
1928.6	0.0000141
1926.6	-0.0000011
1924.7	-0.0000068
1922.8	-0.0000000
1920.9	0.0000051
1918.9	0.0000032
1917.0	-0.0000003
1915.1	0.0000005
1913.1	0.0000055
1911.2	0.0000070
1909.3	0.0000025
1907.4	-0.0000012
1905.4	-0.0000001
1903.5	0.0000024
1901.6	0.0000034
1899.6	0.0000062
1897.7	0.0000101
1895.8	0.0000133
1893.9	0.0000195
1891.9	0.0000294
1890.0	0.0000355
1888.1	0.0000353
1886.1	0.0000349
1884.2	0.0000354
1882.3	0.0000371
1880.4	0.0000429
1878.4	0.0000492
1876.5	0.0000488
1874.6	0.0000432
1872.6	0.0000455
1870.7	0.0000614
1868.8	0.0000778
1866.9	0.0000839
1864.9	0.0000861
1863.0	0.0000929
1861.1	0.0001029
1859.1	0.0001114
1857.2	0.0001188
1855.3	0.0001266
1853.4	0.0001321
1851.4	0.0001365
1849.5	0.0001454
1847.6	0.0001615
1845.6	0.0001821
1843.7	0.0001967
1841.8	0.0002017
1839.9	0.0002087
1837.9	0.0002204
1836.0	0.0002272
1834.1	0.0002297
1832.1	0.0002335
1830.2	0.0002358
1828.3	0.0002371
1826.4	0.0002436
1824.4	0.0002522
1822.5	0.0002539
1820.6	0.0002481
1818.6	0.0002420
1816.7	0.0002353
1814.8	0.0002267
1812.9	0.0002234
1810.9	0.0002242
1809.0	0.0002177
1807.1	0.0002019
1805.1	0.0001847
1803.2	0.0001737
1801.3	0.0001684
1799.4	0.0001607
1797.4	0.0001483
1795.5	0.0001294
1793.6	0.0001012
1791.6	0.0000784
1789.7	0.0000743
1787.8	0.0000815
1785.9	0.0000886
1783.9	0.0000897
1782.0	0.0000847
1780.1	0.0000777
1778.1	0.0000714
1776.2	0.0000687
1774.3	0.0000715
1772.4	0.0000667
1770.4	0.0000435
1768.5	0.0000237
1766.6	0.0000245
1764.6	0.0000279
1762.7	0.0000224
1760.8	0.0000164
1758.9	0.0000101
1756.9	0.0000049
1755.0	0.0000111
1753.1	0.0000172
1751.1	0.0000042
1749.2	-0.0000125
1747.3	-0.0000087
1745.4	0.0000070
1743.4	0.0000108
1741.5	-0.0000004
1739.6	-0.0000089
1737.6	-0.0000047
1735.7	0.0000044
1733.8	0.0000097
1731.9	0.0000117
1729.9	0.0000145
1728.0	0.0000201
1726.1	0.0000256
1724.1	0.0000265
1722.2	0.0000233
1720.3	0.0000266
1718.4	0.0000426
1716.4	0.0000512
1714.5	0.0000419
1712.6	0.0000295
1710.6	0.0000196
1708.7	0.0000120
1706.8	0.0000122
1704.9	0.0000116
1702.9	-0.0000134
1701.0	-0.0000569
1699.1	-0.0000898
1697.1	-0.0001055
1695.2	-0.0000910
1693.3	-0.0000501
1691.4	-0.0000236
1689.4	-0.0000171
1687.5	-0.0000052
1685.6	0.0000111
1683.6	0.0000057
1681.7	-0.0000204
1679.8	-0.0000354
1677.9	-0.0000339
1675.9	-0.0000337
1674.0	-0.0000421
1672.1	-0.0000526
1670.1	-0.0000526
1668.2	-0.0000378
1666.3	-0.0000244
1664.4	-0.0000250
1662.4	-0.0000304
1660.5	-0.0000299
1658.6	-0.0000296
1656.6	-0.0000312
1654.7	-0.0000125
1652.8	0.0000171
1650.9	0.0000152
1648.9	-0.0000029
1647.0	-0.0000056
1645.1	-0.0000097
1643.1	-0.0000242
1641.2	-0.0000337
1639.3	-0.0000464
1637.4	-0.0000749
1635.4	-0.0000924
1633.5	-0.0000773
1631.6	-0.0000532
1629.6	-0.0000396
1627.7	-0.0000353
1625.8	-0.0000401
1623.9	-0.0000403
1621.9	-0.0000246
1620.0	-0.0000035
1618.1	0.0000100
1616.1	0.0000063
1614.2	-0.0000065
1612.3	-0.0000065
1610.4	0.0000019
1608.4	0.0000057
1606.5	0.0000069
1604.6	0.0000044
1602.6	-0.0000033
1600.7	-0.0000050
1598.8	0.0000067
1596.9	0.0000176
1594.9	0.0000121
1593.0	-0.0000023
1591.1	-0.0000097
1589.1	-0.0000110
1587.2	-0.0000127
1585.3	-0.0000121
1583.4	-0.0000076
1581.4	-0.0000041
1579.5	0.0000051
1577.6	0.0000314
1575.6	0.0000512
1573.7	0.0000372
1571.8	0.0000156
1569.9	0.0000165
1567.9	0.0000264
1566.0	0.0000263
1564.1	0.0000074
1562.1	-0.0000379
1560.2	-0.0000727
1558.3	-0.0000464
1556.4	0.0000068
1554.4	0.0000282
1552.5	0.0000190
1550.6	0.0000032
1548.6	-0.0000079
1546.7	-0.0000146
1544.8	-0.0000130
1542.9	-0.0000084
1540.9	-0.0000250
1539.0	-0.0000487
1537.1	-0.0000392
1535.1	-0.0000085
1533.2	0.0000048
1531.3	-0.0000038
1529.4	-0.0000138
1527.4	-0.0000157
1525.5	-0.0000223
1523.6	-0.0000436
1521.6	-0.0000570
1519.7	-0.0000401
1517.8	-0.0000174
1515.9	-0.0000158
1513.9	-0.0000189
1512.0	0.0000006
1510.1	0.0000563
1508.1	0.0001420
1506.2	0.0002122
1504.3	0.0002145
1502.4	0.0001612
1500.4	0.0001009
1498.5	0.0000476
1496.6	0.0000072
1494.6	-0.0000072
1492.7	-0.0000084
1490.8	-0.0000171
1488.9	-0.0000314
1486.9	-0.0000362
1485.0	-0.0000327
1483.1	-0.0000357
1481.1	-0.0000441
1479.2	-0.0000456
1477.3	-0.0000431
1475.4	-0.0000499
1473.4	-0.0000521
1471.5	-0.0000320
1469.6	-0.0000094
1467.6	-0.0000023
1465.7	-0.0000147
1463.8	-0.0000478
1461.9	-0.0000704
1459.9	-0.0000459
1458.0	0.0000119
1456.1	0.0000524
1454.1	0.0000469
1452.2	0.0000195
1450.3	0.0000069
1448.4	0.0000102
1446.4	0.0000102
1444.5	0.0000060
1442.6	0.0000054
1440.6	0.0000024
1438.7	-0.0000108
1436.8	-0.0000202
1434.9	-0.0000049
1432.9	0.0000239
1431.0	0.0000380
1429.1	0.0000327
1427.1	0.0000265
1425.2	0.0000245
1423.3	0.0000241
1421.4	0.0000345
1419.4	0.0000476
1417.5	0.0000422
1415.6	0.0000196
1413.6	0.0000011
1411.7	-0.0000038
1409.8	-0.0000086
1407.9	-0.0000157
1405.9	-0.0000138
1404.0	-0.0000109
1402.1	-0.0000161
1400.1	-0.0000196
1398.2	-0.0000197
1396.3	-0.0000254
1394.4	-0.0000359
1392.4	-0.0000472
1390.5	-0.0000660
1388.6	-0.0000917
1386.6	-0.0000977
1384.7	-0.0000777
1382.8	-0.0000614
1380.9	-0.0000584
1378.9	-0.0000532
1377.0	-0.0000388
1375.1	-0.0000196
1373.1	-0.0000028
1371.2	0.0000058
1369.3	0.0000033
1367.4	-0.0000058
1365.4	-0.0000132
1363.5	-0.0000128
1361.6	-0.0000067
1359.6	0.0000004
1357.7	0.0000105
1355.8	0.0000185
1353.9	0.0000143
1351.9	0.0000003
1350.0	-0.0000187
1348.1	-0.0000392
1346.1	-0.0000470
1344.2	-0.0000387
1342.3	-0.0000281
1340.4	-0.0000208
1338.4	-0.0000119
1336.5	-0.0000000
1334.6	0.0000086
1332.6	0.0000109
1330.7	0.0000092
1328.8	0.0000036
1326.9	-0.0000018
1324.9	-0.0000034
1323.0	-0.0000052
1321.1	-0.0000052
1319.1	-0.0000033
1317.2	-0.0000013
1315.3	0.0000062
1313.4	0.0000133
1311.4	0.0000094
1309.5	-0.0000040
1307.6	-0.0000204
1305.6	-0.0000248
1303.7	-0.0000122
1301.8	-0.0000002
1299.9	0.0000047
1297.9	0.0000083
1296.0	0.0000100
1294.1	0.0000114
1292.1	0.0000191
1290.2	0.0000306
1288.3	0.0000399
1286.4	0.0000440
1284.4	0.0000443
1282.5	0.0000472
1280.6	0.0000566
1278.6	0.0000679
1276.7	0.0000767
1274.8	0.0000843
1272.9	0.0000931
1270.9	0.0001078
1269.0	0.0001363
1267.1	0.0001735
1265.1	0.0001965
1263.2	0.0001997
1261.3	0.0001999
1259.4	0.0001934
1257.4	0.0001674
1255.5	0.0001267
1253.6	0.0000828
1251.6	0.0000487
1249.7	0.0000324
1247.8	0.0000283
1245.9	0.0000274
1243.9	0.0000239
1242.0	0.0000191
1240.1	0.0000126
1238.1	-0.0000029
1236.2	-0.0000268
1234.3	-0.0000500
1232.4	-0.0000629
1230.4	-0.0000565
1228.5	-0.0000342
1226.6	-0.0000118
1224.6	0.0000060
1222.7	0.0000202
1220.8	0.0000249
1218.9	0.0000271
1216.9	0.0000372
1215.0	0.0000458
1213.1	0.0000480
1211.1	0.0000575
1209.2	0.0000758
1207.3	0.0000863
1205.4	0.0000835
1203.4	0.0000761
1201.5	0.0000707
1199.6	0.0000684
1197.6	0.0000632
1195.7	0.0000511
1193.8	0.0000386
1191.9	0.0000293
1189.9	0.0000246
1188.0	0.0000298
1186.1	0.0000374
1184.1	0.0000398
1182.2	0.0000552
1180.3	0.0000930
1178.4	0.0001055
1176.4	0.0000544
1174.5	-0.0000098
1172.6	-0.0000222
1170.6	0.0000020
1168.7	0.0000165
1166.8	0.0000164
1164.9	0.0000080
1162.9	-0.0000143
1161.0	-0.0000284
1159.1	-0.0000088
1157.1	0.0000309
1155.2	0.0000587
1153.3	0.0000662
1151.4	0.0000747
1149.4	0.0000899
1147.5	0.0000891
1145.6	0.0000669
1143.6	0.0000483
1141.7	0.0000531
1139.8	0.0000643
1137.9	0.0000580
1135.9	0.0000388
1134.0	0.0000203
1132.1	0.0000092
1130.1	0.0000109
1128.2	0.0000191
1126.3	0.0000198
1124.4	0.0000102
1122.4	-0.0000057
1120.5	-0.0000204
1118.6	-0.0000164
1116.6	0.0000022
1114.7	0.0000114
1112.8	0.0000141
1110.9	0.0000229
1108.9	0.0000231
1107.0	0.0000130
1105.1	0.0000087
1103.1	0.0000047
1101.2	0.0000018
1099.3	0.0000069
1097.4	0.0000046
1095.4	-0.0000016
1093.5	0.0000020
1091.6	0.0000010
1089.6	-0.0000083
1087.7	-0.0000087
1085.8	-0.0000000
1083.9	0.0000079
1081.9	0.0000077
1080.0	-0.0000023
1078.1	-0.0000114
1076.1	-0.0000093
1074.2	-0.0000007
1072.3	0.0000030
1070.4	-0.0000003
1068.4	-0.0000043
1066.5	-0.0000094
1064.6	-0.0000150
1062.6	-0.0000189
1060.7	-0.0000188
1058.8	-0.0000054
1056.9	0.0000154
1054.9	0.0000227
1053.0	0.0000242
1051.1	0.0000366
1049.1	0.0000488
1047.2	0.0000443
1045.3	0.0000269
1043.4	0.0000120
1041.4	0.0000039
1039.5	-0.0000038
1037.6	-0.0000060
1035.6	0.0000058
1033.7	0.0000220
1031.8	0.0000279
1029.9	0.0000232
1027.9	0.0000160
1026.0	0.0000137
1024.1	0.0000133
1022.1	0.0000050
1020.2	-0.0000108
1018.3	-0.0000267
1016.4	-0.0000347
1014.4	-0.0000296
1012.5	-0.0000188
1010.6	-0.0000113
1008.6	-0.0000071
1006.7	-0.0000082
1004.8	-0.0000153
1002.9	-0.0000194
1000.9	-0.0000171
999.0	-0.0000153
997.1	-0.0000148
995.1	-0.0000062
993.2	0.0000058
991.3	0.0000034
989.4	-0.0000098
987.4	-0.0000133
985.5	-0.0000044
983.6	0.0000045
981.6	0.0000078
979.7	0.0000033
977.8	-0.0000028
975.9	0.0000012
973.9	0.0000092
972.0	0.0000092
970.1	0.0000038
968.1	0.0000001
966.2	0.0000032
964.3	0.0000120
962.4	0.0000196
960.4	0.0000176
958.5	0.0000083
956.6	0.0000038
954.6	0.0000018
952.7	-0.0000011
950.8	0.0000017
948.9	0.0000009
946.9	-0.0000119
945.0	-0.0000153
943.1	0.0000001
941.1	0.0000129
939.2	0.0000147
937.3	0.0000236
935.4	0.0000431
933.4	0.0000433
931.5	0.0000120
929.6	-0.0000166
927.6	-0.0000122
925.7	0.0000133
923.8	0.0000324
921.9	0.0000378
919.9	0.0000389
918.0	0.0000384
916.1	0.0000322
914.1	0.0000219
912.2	0.0000138
910.3	0.0000114
908.4	0.0000167
906.4	0.0000258
904.5	0.0000320
902.6	0.0000365
900.6	0.0000312
898.7	0.0000096
896.8	-0.0000068
894.9	-0.0000057
892.9	0.0000000
891.0	0.0000102
889.1	0.0000173
887.1	0.0000016
885.2	-0.0000198
883.3	-0.0000155
881.4	0.0000019
879.4	0.0000101
877.5	0.0000192
875.6	0.0000366
873.6	0.0000482
871.7	0.0000403
869.8	0.0000185
867.9	0.0000041
865.9	0.0000142
864.0	0.0000448
862.1	0.0000627
860.1	0.0000439
858.2	0.0000109
856.3	-0.0000061
854.4	-0.0000037
852.4	0.0000138
850.5	0.0000305
848.6	0.0000356
846.6	0.0000471
844.7	0.0000679
842.8	0.0000791
840.9	0.0000643
838.9	0.0000270
837.0	-0.0000030
835.1	-0.0000193
833.1	-0.0000429
831.2	-0.0000566
829.3	-0.0000336
827.4	-0.0000046
825.4	0.0000002
823.5	-0.0000031
821.6	-0.0000013
819.6	0.0000033
817.7	0.0000202
815.8	0.0000421
813.9	0.0000376
811.9	0.0000203
810.0	0.0000155
808.1	-0.0000076
806.1	-0.0000473
804.2	-0.0000598
802.3	-0.0000481
800.4	-0.0000324
798.4	-0.0000076
796.5	0.0000346
794.6	0.0000745
792.6	0.0000739
790.7	0.0000377
788.8	0.0000069
786.9	-0.0000032
784.9	0.0000074
783.0	0.0000434
781.1	0.0000917
779.1	0.0001168
777.2	0.0001155
775.3	0.0001393
773.4	0.0002097
771.4	0.0002446
769.5	0.0001870
767.6	0.0001288
765.6	0.0001185
763.7	0.0001030
761.8	0.0001013
759.9	0.0001529
757.9	0.0002400
756.0	0.0003162
754.1	0.0003333
752.1	0.0003262
750.2	0.0003855
748.3	0.0004942
746.4	0.0005684
744.4	0.0005923
742.5	0.0005479
740.6	0.0004346
738.6	0.0003561
736.7	0.0003279
734.8	0.0002295
732.9	0.0000953
730.9	0.0000758
729.0	0.0001291
727.1	0.0001401
725.1	0.0001460
723.2	0.0002180
721.3	0.0003127
719.4	0.0003306
717.4	0.0002732
715.5	0.0002227
713.6	0.0001677
711.6	0.0001286
709.7	0.0001654
707.8	0.0001474
705.9	0.0000324
703.9	0.0000240
702.0	0.0001988
700.1	0.0003644
698.1	0.0003175
696.2	0.0001779
694.3	0.0001650
692.4	0.0001748
690.4	0.0000467
688.5	-0.0001074
686.6	-0.0000910
684.6	0.0000474
682.7	0.0000516
680.8	-0.0001215
678.9	-0.0002260
676.9	-0.0000292
675.0	0.0004075
673.1	0.0006715
671.1	0.0005579
669.2	0.0002653
667.3	-0.0000180
665.4	-0.0001797
663.4	-0.0000209
661.5	0.0004985
659.6	0.0008447
657.6	0.0006919
655.7	0.0003677
653.8	0.0000760
651.9	-0.0000754
649.9	-0.0000272
