3998.1	-0.0022584
3997.2	-0.0022595
3996.2	-0.0022596
3995.2	-0.0022616
3994.3	-0.0022638
3993.3	-0.0022629
3992.3	-0.0022579
3991.4	-0.0022481
3990.4	-0.0022360
3989.5	-0.0022316
3988.5	-0.0022402
3987.5	-0.0022518
3986.6	-0.0022536
3985.6	-0.0022481
3984.6	-0.0022419
3983.7	-0.0022362
3982.7	-0.0022303
3981.7	-0.0022255
3980.8	-0.0022256
3979.8	-0.0022320
3978.8	-0.0022403
3977.9	-0.0022470
3976.9	-0.0022480
3975.9	-0.0022413
3975.0	-0.0022342
3974.0	-0.0022326
3973.1	-0.0022358
3972.1	-0.0022403
3971.1	-0.0022422
3970.2	-0.0022405
3969.2	-0.0022397
3968.2	-0.0022407
3967.3	-0.0022377
3966.3	-0.0022296
3965.3	-0.0022253
3964.4	-0.0022299
3963.4	-0.0022349
3962.4	-0.0022332
3961.5	-0.0022293
3960.5	-0.0022287
3959.6	-0.0022320
3958.6	-0.0022383
3957.6	-0.0022452
3956.7	-0.0022470
3955.7	-0.0022393
3954.7	-0.0022263
3953.8	-0.0022185
3952.8	-0.0022189
3951.8	-0.0022205
3950.9	-0.0022198
3949.9	-0.0022180
3948.9	-0.0022122
3948.0	-0.0022027
3947.0	-0.0021974
3946.1	-0.0022024
3945.1	-0.0022127
3944.1	-0.0022139
3943.2	-0.0022068
3942.2	-0.0022093
3941.2	-0.0022206
3940.3	-0.0022241
3939.3	-0.0022183
3938.3	-0.0022113
3937.4	-0.0022060
3936.4	-0.0022047
3935.4	-0.0022086
3934.5	-0.0022096
3933.5	-0.0022046
3932.6	-0.0021999
3931.6	-0.0022005
3930.6	-0.0022024
3929.7	-0.0021997
3928.7	-0.0021946
3927.7	-0.0021925
3926.8	-0.0021914
3925.8	-0.0021904
3924.8	-0.0021945
3923.9	-0.0022009
3922.9	-0.0022027
3921.9	-0.0021987
3921.0	-0.0021912
3920.0	-0.0021869
3919.1	-0.0021874
3918.1	-0.0021874
3917.1	-0.0021866
3916.2	-0.0021854
3915.2	-0.0021811
3914.2	-0.0021787
3913.3	-0.0021881
3912.3	-0.0022020
3911.3	-0.0022042
3910.4	-0.0021961
3909.4	-0.0021907
3908.4	-0.0021890
3907.5	-0.0021843
3906.5	-0.0021784
3905.6	-0.0021729
3904.6	-0.0021674
3903.6	-0.0021634
3902.7	-0.0021605
3901.7	-0.0021609
3900.7	-0.0021617
3899.8	-0.0021593
3898.8	-0.0021641
3897.8	-0.0021792
3896.9	-0.0021905
3895.9	-0.0021867
3894.9	-0.0021756
3894.0	-0.0021719
3893.0	-0.0021718
3892.1	-0.0021669
3891.1	-0.0021656
3890.1	-0.0021739
3889.2	-0.0021795
3888.2	-0.0021729
3887.2	-0.0021595
3886.3	-0.0021527
3885.3	-0.0021622
3884.3	-0.0021797
3883.4	-0.0021873
3882.4	-0.0021792
3881.4	-0.0021655
3880.5	-0.0021607
3879.5	-0.0021699
3878.6	-0.0021815
3877.6	-0.0021826
3876.6	-0.0021768
3875.7	-0.0021717
3874.7	-0.0021688
3873.7	-0.0021689
3872.8	-0.0021718
3871.8	-0.0021735
3870.8	-0.0021700
3869.9	-0.0021660
3868.9	-0.0021703
3867.9	-0.0021808
3867.0	-0.0021808
3866.0	-0.0021676
3865.1	-0.0021654
3864.1	-0.0021760
3863.1	-0.0021710
3862.2	-0.0021533
3861.2	-0.0021476
3860.2	-0.0021547
3859.3	-0.0021619
3858.3	-0.0021633
3857.3	-0.0021612
3856.4	-0.0021585
3855.4	-0.0021546
3854.4	-0.0021535
3853.5	-0.0021598
3852.5	-0.0021669
3851.6	-0.0021715
3850.6	-0.0021754
3849.6	-0.0021770
3848.7	-0.0021738
3847.7	-0.0021636
3846.7	-0.0021518
3845.8	-0.0021496
3844.8	-0.0021531
3843.8	-0.0021512
3842.9	-0.0021476
3841.9	-0.0021537
3840.9	-0.0021682
3840.0	-0.0021794
3839.0	-0.0021769
3838.0	-0.0021660
3837.1	-0.0021618
3836.1	-0.0021649
3835.2	-0.0021666
3834.2	-0.0021694
3833.2	-0.0021726
3832.3	-0.0021697
3831.3	-0.0021593
3830.3	-0.0021456
3829.4	-0.0021372
3828.4	-0.0021417
3827.4	-0.0021514
3826.5	-0.0021510
3825.5	-0.0021418
3824.5	-0.0021381
3823.6	-0.0021448
3822.6	-0.0021523
3821.7	-0.0021508
3820.7	-0.0021457
3819.7	-0.0021420
3818.8	-0.0021386
3817.8	-0.0021407
3816.8	-0.0021486
3815.9	-0.0021541
3814.9	-0.0021510
3813.9	-0.0021442
3813.0	-0.0021438
3812.0	-0.0021470
3811.0	-0.0021456
3810.1	-0.0021470
3809.1	-0.0021540
3808.2	-0.0021578
3807.2	-0.0021596
3806.2	-0.0021596
3805.3	-0.0021524
3804.3	-0.0021459
3803.3	-0.0021486
3802.4	-0.0021537
3801.4	-0.0021506
3800.4	-0.0021443
3799.5	-0.0021455
3798.5	-0.0021533
3797.5	-0.0021593
3796.6	-0.0021566
3795.6	-0.0021495
3794.7	-0.0021470
3793.7	-0.0021468
3792.7	-0.0021447
3791.8	-0.0021438
3790.8	-0.0021439
3789.8	-0.0021452
3788.9	-0.0021482
3787.9	-0.0021502
3786.9	-0.0021486
3786.0	-0.0021458
3785.0	-0.0021459
3784.0	-0.0021464
3783.1	-0.0021416
3782.1	-0.0021348
3781.2	-0.0021345
3780.2	-0.0021403
3779.2	-0.0021425
3778.3	-0.0021384
3777.3	-0.0021368
3776.3	-0.0021413
3775.4	-0.0021427
3774.4	-0.0021392
3773.4	-0.0021369
3772.5	-0.0021332
3771.5	-0.0021266
3770.5	-0.0021264
3769.6	-0.0021352
3768.6	-0.0021418
3767.7	-0.0021391
3766.7	-0.0021293
3765.7	-0.0021215
3764.8	-0.0021247
3763.8	-0.0021353
3762.8	-0.0021416
3761.9	-0.0021389
3760.9	-0.0021302
3759.9	-0.0021235
3759.0	-0.0021238
3758.0	-0.0021257
3757.0	-0.0021285
3756.1	-0.0021346
3755.1	-0.0021351
3754.2	-0.0021238
3753.2	-0.0021113
3752.2	-0.0021107
3751.3	-0.0021155
3750.3	-0.0021149
3749.3	-0.0021158
3748.4	-0.0021219
3747.4	-0.0021228
3746.4	-0.0021123
3745.5	-0.0020964
3744.5	-0.0020926
3743.5	-0.0021040
3742.6	-0.0021129
3741.6	-0.0021129
3740.7	-0.0021100
3739.7	-0.0021089
3738.7	-0.0021064
3737.8	-0.0020949
3736.8	-0.0020808
3735.8	-0.0020766
3734.9	-0.0020838
3733.9	-0.0020977
3732.9	-0.0021105
3732.0	-0.0021188
3731.0	-0.0021225
3730.0	-0.0021186
3729.1	-0.0021099
3728.1	-0.0021013
3727.2	-0.0020967
3726.2	-0.0020956
3725.2	-0.0020970
3724.3	-0.0020991
3723.3	-0.0020990
3722.3	-0.0020983
3721.4	-0.0020982
3720.4	-0.0020965
3719.4	-0.0020963
3718.5	-0.0020965
3717.5	-0.0020941
3716.5	-0.0020921
3715.6	-0.0020922
3714.6	-0.0020931
3713.7	-0.0020948
3712.7	-0.0020961
3711.7	-0.0020968
3710.8	-0.0020990
3709.8	-0.0021010
3708.8	-0.0020990
3707.9	-0.0020949
3706.9	-0.0020935
3705.9	-0.0020932
3705.0	-0.0020947
3704.0	-0.0020989
3703.0	-0.0021004
3702.1	-0.0020986
3701.1	-0.0020975
3700.1	-0.0020964
3699.2	-0.0020954
3698.2	-0.0020984
3697.3	-0.0021027
3696.3	-0.0021038
3695.3	-0.0021024
3694.4	-0.0020999
3693.4	-0.0020973
3692.4	-0.0020938
3691.5	-0.0020888
3690.5	-0.0020842
3689.5	-0.0020802
3688.6	-0.0020821
3687.6	-0.0020912
3686.6	-0.0020978
3685.7	-0.0020973
3684.7	-0.0020941
3683.8	-0.0020931
3682.8	-0.0020959
3681.8	-0.0020991
3680.9	-0.0020999
3679.9	-0.0021025
3678.9	-0.0021116
3678.0	-0.0021174
3677.0	-0.0021060
3676.0	-0.0020839
3675.1	-0.0020710
3674.1	-0.0020735
3673.1	-0.0020809
3672.2	-0.0020789
3671.2	-0.0020700
3670.3	-0.0020690
3669.3	-0.0020757
3668.3	-0.0020773
3667.4	-0.0020726
3666.4	-0.0020685
3665.4	-0.0020711
3664.5	-0.0020760
3663.5	-0.0020768
3662.5	-0.0020739
3661.6	-0.0020710
3660.6	-0.0020713
3659.6	-0.0020761
3658.7	-0.0020817
3657.7	-0.0020801
3656.8	-0.0020720
3655.8	-0.0020705
3654.8	-0.0020777
3653.9	-0.0020826
3652.9	-0.0020778
3651.9	-0.0020644
3651.0	-0.0020500
3650.0	-0.0020453
3649.0	-0.0020496
3648.1	-0.0020526
3647.1	-0.0020587
3646.1	-0.0020728
3645.2	-0.0020807
3644.2	-0.0020749
3643.3	-0.0020672
3642.3	-0.0020660
3641.3	-0.0020698
3640.4	-0.0020743
3639.4	-0.0020776
3638.4	-0.0020797
3637.5	-0.0020770
3636.5	-0.0020715
3635.5	-0.0020706
3634.6	-0.0020748
3633.6	-0.0020807
3632.6	-0.0020865
3631.7	-0.0020824
3630.7	-0.0020628
3629.8	-0.0020429
3628.8	-0.0020389
3627.8	-0.0020474
3626.9	-0.0020552
3625.9	-0.0020563
3624.9	-0.0020545
3624.0	-0.0020546
3623.0	-0.0020527
3622.0	-0.0020444
3621.1	-0.0020330
3620.1	-0.0020212
3619.1	-0.0020083
3618.2	-0.0019971
3617.2	-0.0019889
3616.3	-0.0019774
3615.3	-0.0019566
3614.3	-0.0019219
3613.4	-0.0018726
3612.4	-0.0018136
3611.4	-0.0017368
3610.5	-0.0016207
3609.5	-0.0014613
3608.5	-0.0012646
3607.6	-0.0010263
3606.6	-0.0007517
3605.6	-0.0004634
3604.7	-0.0001833
3603.7	0.0000748
3602.8	0.0002986
3601.8	0.0004880
3600.8	0.0006812
3599.9	0.0009125
3598.9	0.0011360
3597.9	0.0012817
3597.0	0.0013538
3596.0	0.0014064
3595.0	0.0014703
3594.1	0.0015378
3593.1	0.0015817
3592.1	0.0015767
3591.2	0.0015157
3590.2	0.0014059
3589.3	0.0012525
3588.3	0.0010587
3587.3	0.0008383
3586.4	0.0006068
3585.4	0.0003721
3584.4	0.0001402
3583.5	-0.0000829
3582.5	-0.0002895
3581.5	-0.0004776
3580.6	-0.0006503
3579.6	-0.0008096
3578.6	-0.0009567
3577.7	-0.0010919
3576.7	-0.0012145
3575.8	-0.0013262
3574.8	-0.0014298
3573.8	-0.0015237
3572.9	-0.0016067
3571.9	-0.0016808
3570.9	-0.0017490
3570.0	-0.0018072
3569.0	-0.0018486
3568.0	-0.0018808
3567.1	-0.0019156
3566.1	-0.0019499
3565.1	-0.0019805
3564.2	-0.0020112
3563.2	-0.0020375
3562.3	-0.0020500
3561.3	-0.0020527
3560.3	-0.0020591
3559.4	-0.0020739
3558.4	-0.0020878
3557.4	-0.0020920
3556.5	-0.0020885
3555.5	-0.0020839
3554.5	-0.0020820
3553.6	-0.0020835
3552.6	-0.0020888
3551.6	-0.0020959
3550.7	-0.0021033
3549.7	-0.0021090
3548.7	-0.0021050
3547.8	-0.0020922
3546.8	-0.0020878
3545.9	-0.0020959
3544.9	-0.0021054
3543.9	-0.0021144
3543.0	-0.0021243
3542.0	-0.0021319
3541.0	-0.0021364
3540.1	-0.0021392
3539.1	-0.0021407
3538.1	-0.0021393
3537.2	-0.0021350
3536.2	-0.0021345
3535.2	-0.0021372
3534.3	-0.0021359
3533.3	-0.0021337
3532.4	-0.0021361
3531.4	-0.0021407
3530.4	-0.0021422
3529.5	-0.0021412
3528.5	-0.0021427
3527.5	-0.0021457
3526.6	-0.0021451
3525.6	-0.0021422
3524.6	-0.0021413
3523.7	-0.0021418
3522.7	-0.0021446
3521.7	-0.0021496
3520.8	-0.0021527
3519.8	-0.0021511
3518.9	-0.0021481
3517.9	-0.0021475
3516.9	-0.0021497
3516.0	-0.0021532
3515.0	-0.0021548
3514.0	-0.0021544
3513.1	-0.0021559
3512.1	-0.0021571
3511.1	-0.0021541
3510.2	-0.0021497
3509.2	-0.0021490
3508.2	-0.0021522
3507.3	-0.0021561
3506.3	-0.0021599
3505.4	-0.0021632
3504.4	-0.0021629
3503.4	-0.0021577
3502.5	-0.0021520
3501.5	-0.0021526
3500.5	-0.0021579
3499.6	-0.0021625
3498.6	-0.0021648
3497.6	-0.0021639
3496.7	-0.0021605
3495.7	-0.0021559
3494.7	-0.0021538
3493.8	-0.0021590
3492.8	-0.0021669
3491.9	-0.0021691
3490.9	-0.0021660
3489.9	-0.0021646
3489.0	-0.0021668
3488.0	-0.0021735
3487.0	-0.0021822
3486.1	-0.0021849
3485.1	-0.0021814
3484.1	-0.0021767
3483.2	-0.0021764
3482.2	-0.0021808
3481.2	-0.0021819
3480.3	-0.0021813
3479.3	-0.0021836
3478.4	-0.0021820
3477.4	-0.0021762
3476.4	-0.0021727
3475.5	-0.0021710
3474.5	-0.0021704
3473.5	-0.0021730
3472.6	-0.0021779
3471.6	-0.0021812
3470.6	-0.0021794
3469.7	-0.0021753
3468.7	-0.0021730
3467.7	-0.0021709
3466.8	-0.0021709
3465.8	-0.0021754
3464.9	-0.0021806
3463.9	-0.0021818
3462.9	-0.0021793
3462.0	-0.0021771
3461.0	-0.0021785
3460.0	-0.0021801
3459.1	-0.0021790
3458.1	-0.0021752
3457.1	-0.0021678
3456.2	-0.0021610
3455.2	-0.0021638
3454.2	-0.0021763
3453.3	-0.0021865
3452.3	-0.0021875
3451.4	-0.0021854
3450.4	-0.0021851
3449.4	-0.0021850
3448.5	-0.0021835
3447.5	-0.0021813
3446.5	-0.0021826
3445.6	-0.0021852
3444.6	-0.0021849
3443.6	-0.0021865
3442.7	-0.0021934
3441.7	-0.0021983
3440.7	-0.0021981
3439.8	-0.0021961
3438.8	-0.0021948
3437.9	-0.0021933
3436.9	-0.0021891
3435.9	-0.0021835
3435.0	-0.0021806
3434.0	-0.0021814
3433.0	-0.0021815
3432.1	-0.0021808
3431.1	-0.0021839
3430.1	-0.0021867
3429.2	-0.0021815
3428.2	-0.0021747
3427.2	-0.0021752
3426.3	-0.0021772
3425.3	-0.0021743
3424.4	-0.0021716
3423.4	-0.0021734
3422.4	-0.0021761
3421.5	-0.0021762
3420.5	-0.0021758
3419.5	-0.0021815
3418.6	-0.0021900
3417.6	-0.0021915
3416.6	-0.0021874
3415.7	-0.0021829
3414.7	-0.0021798
3413.7	-0.0021802
3412.8	-0.0021816
3411.8	-0.0021801
3410.8	-0.0021783
3409.9	-0.0021787
3408.9	-0.0021785
3408.0	-0.0021767
3407.0	-0.0021749
3406.0	-0.0021736
3405.1	-0.0021741
3404.1	-0.0021772
3403.1	-0.0021813
3402.2	-0.0021828
3401.2	-0.0021801
3400.2	-0.0021774
3399.3	-0.0021781
3398.3	-0.0021807
3397.3	-0.0021847
3396.4	-0.0021873
3395.4	-0.0021847
3394.5	-0.0021809
3393.5	-0.0021834
3392.5	-0.0021899
3391.6	-0.0021923
3390.6	-0.0021899
3389.6	-0.0021860
3388.7	-0.0021801
3387.7	-0.0021722
3386.7	-0.0021644
3385.8	-0.0021586
3384.8	-0.0021577
3383.8	-0.0021628
3382.9	-0.0021684
3381.9	-0.0021666
3381.0	-0.0021609
3380.0	-0.0021622
3379.0	-0.0021667
3378.1	-0.0021671
3377.1	-0.0021684
3376.1	-0.0021734
3375.2	-0.0021752
3374.2	-0.0021706
3373.2	-0.0021663
3372.3	-0.0021669
3371.3	-0.0021712
3370.3	-0.0021750
3369.4	-0.0021743
3368.4	-0.0021685
3367.5	-0.0021629
3366.5	-0.0021595
3365.5	-0.0021582
3364.6	-0.0021600
3363.6	-0.0021629
3362.6	-0.0021630
3361.7	-0.0021603
3360.7	-0.0021569
3359.7	-0.0021560
3358.8	-0.0021592
3357.8	-0.0021614
3356.8	-0.0021601
3355.9	-0.0021609
3354.9	-0.0021643
3354.0	-0.0021615
3353.0	-0.0021547
3352.0	-0.0021543
3351.1	-0.0021584
3350.1	-0.0021622
3349.1	-0.0021620
3348.2	-0.0021570
3347.2	-0.0021541
3346.2	-0.0021552
3345.3	-0.0021550
3344.3	-0.0021541
3343.3	-0.0021535
3342.4	-0.0021523
3341.4	-0.0021522
3340.5	-0.0021540
3339.5	-0.0021548
3338.5	-0.0021541
3337.6	-0.0021536
3336.6	-0.0021529
3335.6	-0.0021509
3334.7	-0.0021496
3333.7	-0.0021513
3332.7	-0.0021540
3331.8	-0.0021552
3330.8	-0.0021556
3329.8	-0.0021552
3328.9	-0.0021535
3327.9	-0.0021513
3327.0	-0.0021499
3326.0	-0.0021505
3325.0	-0.0021518
3324.1	-0.0021490
3323.1	-0.0021425
3322.1	-0.0021405
3321.2	-0.0021457
3320.2	-0.0021510
3319.2	-0.0021544
3318.3	-0.0021577
3317.3	-0.0021580
3316.3	-0.0021540
3315.4	-0.0021491
3314.4	-0.0021452
3313.5	-0.0021424
3312.5	-0.0021410
3311.5	-0.0021438
3310.6	-0.0021479
3309.6	-0.0021476
3308.6	-0.0021452
3307.7	-0.0021461
3306.7	-0.0021499
3305.7	-0.0021528
3304.8	-0.0021523
3303.8	-0.0021497
3302.8	-0.0021452
3301.9	-0.0021375
3300.9	-0.0021304
3300.0	-0.0021304
3299.0	-0.0021337
3298.0	-0.0021337
3297.1	-0.0021333
3296.1	-0.0021388
3295.1	-0.0021444
3294.2	-0.0021443
3293.2	-0.0021419
3292.2	-0.0021417
3291.3	-0.0021420
3290.3	-0.0021413
3289.3	-0.0021418
3288.4	-0.0021400
3287.4	-0.0021335
3286.5	-0.0021296
3285.5	-0.0021317
3284.5	-0.0021332
3283.6	-0.0021310
3282.6	-0.0021287
3281.6	-0.0021298
3280.7	-0.0021334
3279.7	-0.0021364
3278.7	-0.0021377
3277.8	-0.0021381
3276.8	-0.0021355
3275.8	-0.0021302
3274.9	-0.0021265
3273.9	-0.0021262
3272.9	-0.0021265
3272.0	-0.0021266
3271.0	-0.0021260
3270.1	-0.0021224
3269.1	-0.0021197
3268.1	-0.0021221
3267.2	-0.0021236
3266.2	-0.0021217
3265.2	-0.0021194
3264.3	-0.0021172
3263.3	-0.0021152
3262.3	-0.0021161
3261.4	-0.0021195
3260.4	-0.0021197
3259.4	-0.0021159
3258.5	-0.0021121
3257.5	-0.0021107
3256.6	-0.0021117
3255.6	-0.0021117
3254.6	-0.0021103
3253.7	-0.0021120
3252.7	-0.0021169
3251.7	-0.0021220
3250.8	-0.0021242
3249.8	-0.0021228
3248.8	-0.0021214
3247.9	-0.0021222
3246.9	-0.0021213
3245.9	-0.0021172
3245.0	-0.0021150
3244.0	-0.0021158
3243.1	-0.0021155
3242.1	-0.0021126
3241.1	-0.0021086
3240.2	-0.0021056
3239.2	-0.0021054
3238.2	-0.0021085
3237.3	-0.0021127
3236.3	-0.0021163
3235.3	-0.0021188
3234.4	-0.0021193
3233.4	-0.0021173
3232.4	-0.0021142
3231.5	-0.0021107
3230.5	-0.0021057
3229.6	-0.0021023
3228.6	-0.0021010
3227.6	-0.0020991
3226.7	-0.0020999
3225.7	-0.0021047
3224.7	-0.0021090
3223.8	-0.0021089
3222.8	-0.0021069
3221.8	-0.0021084
3220.9	-0.0021111
3219.9	-0.0021089
3218.9	-0.0021026
3218.0	-0.0020980
3217.0	-0.0020969
3216.1	-0.0020966
3215.1	-0.0020950
3214.1	-0.0020941
3213.2	-0.0020956
3212.2	-0.0020961
3211.2	-0.0020936
3210.3	-0.0020891
3209.3	-0.0020851
3208.3	-0.0020845
3207.4	-0.0020854
3206.4	-0.0020860
3205.4	-0.0020875
3204.5	-0.0020881
3203.5	-0.0020859
3202.6	-0.0020836
3201.6	-0.0020837
3200.6	-0.0020856
3199.7	-0.0020858
3198.7	-0.0020823
3197.7	-0.0020757
3196.8	-0.0020712
3195.8	-0.0020726
3194.8	-0.0020757
3193.9	-0.0020765
3192.9	-0.0020762
3191.9	-0.0020763
3191.0	-0.0020755
3190.0	-0.0020733
3189.1	-0.0020703
3188.1	-0.0020676
3187.1	-0.0020671
3186.2	-0.0020689
3185.2	-0.0020713
3184.2	-0.0020731
3183.3	-0.0020727
3182.3	-0.0020709
3181.3	-0.0020722
3180.4	-0.0020767
3179.4	-0.0020777
3178.4	-0.0020741
3177.5	-0.0020710
3176.5	-0.0020686
3175.6	-0.0020660
3174.6	-0.0020653
3173.6	-0.0020671
3172.7	-0.0020682
3171.7	-0.0020659
3170.7	-0.0020612
3169.8	-0.0020599
3168.8	-0.0020634
3167.8	-0.0020662
3166.9	-0.0020650
3165.9	-0.0020655
3164.9	-0.0020682
3164.0	-0.0020666
3163.0	-0.0020632
3162.1	-0.0020639
3161.1	-0.0020639
3160.1	-0.0020582
3159.2	-0.0020532
3158.2	-0.0020537
3157.2	-0.0020545
3156.3	-0.0020516
3155.3	-0.0020472
3154.3	-0.0020431
3153.4	-0.0020427
3152.4	-0.0020481
3151.4	-0.0020515
3150.5	-0.0020477
3149.5	-0.0020400
3148.6	-0.0020314
3147.6	-0.0020252
3146.6	-0.0020261
3145.7	-0.0020295
3144.7	-0.0020277
3143.7	-0.0020246
3142.8	-0.0020251
3141.8	-0.0020234
3140.8	-0.0020146
3139.9	-0.0020039
3138.9	-0.0019966
3137.9	-0.0019933
3137.0	-0.0019919
3136.0	-0.0019883
3135.1	-0.0019828
3134.1	-0.0019790
3133.1	-0.0019768
3132.2	-0.0019752
3131.2	-0.0019719
3130.2	-0.0019665
3129.3	-0.0019624
3128.3	-0.0019621
3127.3	-0.0019628
3126.4	-0.0019609
3125.4	-0.0019597
3124.4	-0.0019603
3123.5	-0.0019587
3122.5	-0.0019558
3121.5	-0.0019545
3120.6	-0.0019537
3119.6	-0.0019507
3118.7	-0.0019455
3117.7	-0.0019419
3116.7	-0.0019409
3115.8	-0.0019364
3114.8	-0.0019250
3113.8	-0.0019127
3112.9	-0.0019032
3111.9	-0.0018941
3110.9	-0.0018838
3110.0	-0.0018718
3109.0	-0.0018608
3108.0	-0.0018549
3107.1	-0.0018529
3106.1	-0.0018520
3105.2	-0.0018468
3104.2	-0.0018375
3103.2	-0.0018307
3102.3	-0.0018262
3101.3	-0.0018186
3100.3	-0.0018064
3099.4	-0.0017902
3098.4	-0.0017701
3097.4	-0.0017461
3096.5	-0.0017211
3095.5	-0.0017022
3094.5	-0.0016891
3093.6	-0.0016768
3092.6	-0.0016634
3091.7	-0.0016497
3090.7	-0.0016348
3089.7	-0.0016167
3088.8	-0.0015966
3087.8	-0.0015784
3086.8	-0.0015637
3085.9	-0.0015517
3084.9	-0.0015388
3083.9	-0.0015202
3083.0	-0.0014944
3082.0	-0.0014644
3081.0	-0.0014318
3080.1	-0.0013980
3079.1	-0.0013622
3078.2	-0.0013217
3077.2	-0.0012761
3076.2	-0.0012240
3075.3	-0.0011649
3074.3	-0.0011037
3073.3	-0.0010479
3072.4	-0.0010035
3071.4	-0.0009735
3070.4	-0.0009564
3069.5	-0.0009455
3068.5	-0.0009360
3067.5	-0.0009323
3066.6	-0.0009383
3065.6	-0.0009451
3064.7	-0.0009440
3063.7	-0.0009440
3062.7	-0.0009553
3061.8	-0.0009787
3060.8	-0.0010158
3059.8	-0.0010688
3058.9	-0.0011321
3057.9	-0.0011960
3056.9	-0.0012580
3056.0	-0.0013212
3055.0	-0.0013843
3054.0	-0.0014418
3053.1	-0.0014912
3052.1	-0.0015346
3051.2	-0.0015727
3050.2	-0.0016070
3049.2	-0.0016416
3048.3	-0.0016751
3047.3	-0.0017054
3046.3	-0.0017349
3045.4	-0.0017597
3044.4	-0.0017775
3043.4	-0.0017927
3042.5	-0.0018058
3041.5	-0.0018196
3040.5	-0.0018352
3039.6	-0.0018453
3038.6	-0.0018486
3037.7	-0.0018518
3036.7	-0.0018553
3035.7	-0.0018545
3034.8	-0.0018497
3033.8	-0.0018452
3032.8	-0.0018404
3031.9	-0.0018325
3030.9	-0.0018239
3029.9	-0.0018150
3029.0	-0.0018007
3028.0	-0.0017797
3027.0	-0.0017525
3026.1	-0.0017121
3025.1	-0.0016515
3024.2	-0.0015733
3023.2	-0.0014826
3022.2	-0.0013816
3021.3	-0.0012798
3020.3	-0.0011925
3019.3	-0.0011300
3018.4	-0.0010903
3017.4	-0.0010501
3016.4	-0.0009966
3015.5	-0.0009538
3014.5	-0.0009361
3013.5	-0.0009273
3012.6	-0.0009192
3011.6	-0.0009129
3010.7	-0.0009073
3009.7	-0.0009056
3008.7	-0.0009150
3007.8	-0.0009440
3006.8	-0.0009961
3005.8	-0.0010647
3004.9	-0.0011439
3003.9	-0.0012326
3002.9	-0.0013257
3002.0	-0.0014121
3001.0	-0.0014832
3000.0	-0.0015369
2999.1	-0.0015780
2998.1	-0.0016144
2997.2	-0.0016463
2996.2	-0.0016704
2995.2	-0.0016892
2994.3	-0.0017033
2993.3	-0.0017094
2992.3	-0.0017119
2991.4	-0.0017160
2990.4	-0.0017172
2989.4	-0.0017132
2988.5	-0.0017062
2987.5	-0.0016958
2986.5	-0.0016835
2985.6	-0.0016730
2984.6	-0.0016606
2983.6	-0.0016398
2982.7	-0.0016130
2981.7	-0.0015831
2980.8	-0.0015500
2979.8	-0.0015124
2978.8	-0.0014711
2977.9	-0.0014282
2976.9	-0.0013824
2975.9	-0.0013352
2975.0	-0.0012927
2974.0	-0.0012541
2973.0	-0.0012114
2972.1	-0.0011612
2971.1	-0.0011049
2970.1	-0.0010404
2969.2	-0.0009603
2968.2	-0.0008614
2967.3	-0.0007454
2966.3	-0.0006196
2965.3	-0.0005027
2964.4	-0.0004254
2963.4	-0.0004185
2962.4	-0.0004849
2961.5	-0.0005829
2960.5	-0.0006626
2959.5	-0.0007068
2958.6	-0.0007251
2957.6	-0.0007310
2956.6	-0.0007319
2955.7	-0.0007344
2954.7	-0.0007444
2953.8	-0.0007637
2952.8	-0.0007916
2951.8	-0.0008277
2950.9	-0.0008730
2949.9	-0.0009271
2948.9	-0.0009856
2948.0	-0.0010402
2947.0	-0.0010873
2946.0	-0.0011296
2945.1	-0.0011678
2944.1	-0.0012009
2943.1	-0.0012304
2942.2	-0.0012570
2941.2	-0.0012806
2940.3	-0.0013028
2939.3	-0.0013231
2938.3	-0.0013408
2937.4	-0.0013563
2936.4	-0.0013656
2935.4	-0.0013651
2934.5	-0.0013563
2933.5	-0.0013447
2932.5	-0.0013324
2931.6	-0.0013175
2930.6	-0.0013001
2929.6	-0.0012824
2928.7	-0.0012646
2927.7	-0.0012454
2926.8	-0.0012263
2925.8	-0.0012097
2924.8	-0.0011926
2923.9	-0.0011707
2922.9	-0.0011480
2921.9	-0.0011334
2921.0	-0.0011326
2920.0	-0.0011455
2919.0	-0.0011671
2918.1	-0.0011927
2917.1	-0.0012198
2916.1	-0.0012484
2915.2	-0.0012835
2914.2	-0.0013258
2913.3	-0.0013678
2912.3	-0.0014062
2911.3	-0.0014432
2910.4	-0.0014783
2909.4	-0.0015087
2908.4	-0.0015331
2907.5	-0.0015526
2906.5	-0.0015687
2905.5	-0.0015817
2904.6	-0.0015917
2903.6	-0.0016024
2902.6	-0.0016181
2901.7	-0.0016373
2900.7	-0.0016528
2899.8	-0.0016629
2898.8	-0.0016713
2897.8	-0.0016769
2896.9	-0.0016803
2895.9	-0.0016873
2894.9	-0.0016964
2894.0	-0.0017025
2893.0	-0.0017077
2892.0	-0.0017141
2891.1	-0.0017180
2890.1	-0.0017185
2889.1	-0.0017211
2888.2	-0.0017263
2887.2	-0.0017303
2886.3	-0.0017298
2885.3	-0.0017268
2884.3	-0.0017264
2883.4	-0.0017290
2882.4	-0.0017311
2881.4	-0.0017297
2880.5	-0.0017268
2879.5	-0.0017259
2878.5	-0.0017266
2877.6	-0.0017250
2876.6	-0.0017191
2875.6	-0.0017103
2874.7	-0.0017008
2873.7	-0.0016933
2872.8	-0.0016878
2871.8	-0.0016795
2870.8	-0.0016667
2869.9	-0.0016515
2868.9	-0.0016294
2867.9	-0.0015977
2867.0	-0.0015621
2866.0	-0.0015250
2865.0	-0.0014804
2864.1	-0.0014284
2863.1	-0.0013750
2862.1	-0.0013163
2861.2	-0.0012487
2860.2	-0.0011833
2859.3	-0.0011298
2858.3	-0.0010876
2857.3	-0.0010574
2856.4	-0.0010387
2855.4	-0.0010255
2854.4	-0.0010141
2853.5	-0.0010052
2852.5	-0.0010032
2851.5	-0.0010092
2850.6	-0.0010196
2849.6	-0.0010351
2848.6	-0.0010569
2847.7	-0.0010819
2846.7	-0.0011127
2845.7	-0.0011545
2844.8	-0.0012062
2843.8	-0.0012642
2842.9	-0.0013235
2841.9	-0.0013795
2840.9	-0.0014313
2840.0	-0.0014788
2839.0	-0.0015224
2838.0	-0.0015614
2837.1	-0.0015917
2836.1	-0.0016137
2835.1	-0.0016346
2834.2	-0.0016563
2833.2	-0.0016753
2832.2	-0.0016883
2831.3	-0.0016958
2830.3	-0.0017014
2829.4	-0.0017060
2828.4	-0.0017065
2827.4	-0.0017042
2826.5	-0.0017044
2825.5	-0.0017065
2824.5	-0.0017091
2823.6	-0.0017133
2822.6	-0.0017178
2821.6	-0.0017194
2820.7	-0.0017159
2819.7	-0.0017133
2818.7	-0.0017154
2817.8	-0.0017169
2816.8	-0.0017153
2815.9	-0.0017146
2814.9	-0.0017164
2813.9	-0.0017211
2813.0	-0.0017291
2812.0	-0.0017351
2811.0	-0.0017363
2810.1	-0.0017372
2809.1	-0.0017408
2808.1	-0.0017445
2807.2	-0.0017476
2806.2	-0.0017496
2805.2	-0.0017509
2804.3	-0.0017529
2803.3	-0.0017541
2802.4	-0.0017532
2801.4	-0.0017555
2800.4	-0.0017611
2799.5	-0.0017642
2798.5	-0.0017621
2797.5	-0.0017591
2796.6	-0.0017602
2795.6	-0.0017626
2794.6	-0.0017636
2793.7	-0.0017659
2792.7	-0.0017680
2791.7	-0.0017682
2790.8	-0.0017694
2789.8	-0.0017714
2788.9	-0.0017695
2787.9	-0.0017625
2786.9	-0.0017562
2786.0	-0.0017544
2785.0	-0.0017555
2784.0	-0.0017573
2783.1	-0.0017599
2782.1	-0.0017607
2781.1	-0.0017594
2780.2	-0.0017602
2779.2	-0.0017605
2778.2	-0.0017546
2777.3	-0.0017462
2776.3	-0.0017403
2775.4	-0.0017368
2774.4	-0.0017344
2773.4	-0.0017321
2772.5	-0.0017305
2771.5	-0.0017324
2770.5	-0.0017355
2769.6	-0.0017351
2768.6	-0.0017332
2767.6	-0.0017335
2766.7	-0.0017342
2765.7	-0.0017322
2764.7	-0.0017300
2763.8	-0.0017300
2762.8	-0.0017305
2761.9	-0.0017302
2760.9	-0.0017302
2759.9	-0.0017328
2759.0	-0.0017359
2758.0	-0.0017365
2757.0	-0.0017352
2756.1	-0.0017338
2755.1	-0.0017350
2754.1	-0.0017397
2753.2	-0.0017440
2752.2	-0.0017432
2751.2	-0.0017392
2750.3	-0.0017365
2749.3	-0.0017354
2748.4	-0.0017337
2747.4	-0.0017306
2746.4	-0.0017276
2745.5	-0.0017262
2744.5	-0.0017259
2743.5	-0.0017258
2742.6	-0.0017279
2741.6	-0.0017313
2740.6	-0.0017320
2739.7	-0.0017278
2738.7	-0.0017213
2737.7	-0.0017168
2736.8	-0.0017155
2735.8	-0.0017158
2734.9	-0.0017153
2733.9	-0.0017130
2732.9	-0.0017114
2732.0	-0.0017132
2731.0	-0.0017179
2730.0	-0.0017206
2729.1	-0.0017186
2728.1	-0.0017147
2727.1	-0.0017132
2726.2	-0.0017139
2725.2	-0.0017151
2724.2	-0.0017174
2723.3	-0.0017208
2722.3	-0.0017213
2721.4	-0.0017199
2720.4	-0.0017212
2719.4	-0.0017231
2718.5	-0.0017232
2717.5	-0.0017226
2716.5	-0.0017230
2715.6	-0.0017237
2714.6	-0.0017214
2713.6	-0.0017169
2712.7	-0.0017160
2711.7	-0.0017190
2710.7	-0.0017222
2709.8	-0.0017211
2708.8	-0.0017171
2707.9	-0.0017169
2706.9	-0.0017212
2705.9	-0.0017234
2705.0	-0.0017197
2704.0	-0.0017158
2703.0	-0.0017180
2702.1	-0.0017213
2701.1	-0.0017197
2700.1	-0.0017155
2699.2	-0.0017150
2698.2	-0.0017182
2697.2	-0.0017200
2696.3	-0.0017197
2695.3	-0.0017187
2694.3	-0.0017161
2693.4	-0.0017122
2692.4	-0.0017120
2691.5	-0.0017178
2690.5	-0.0017232
2689.5	-0.0017219
2688.6	-0.0017175
2687.6	-0.0017160
2686.6	-0.0017170
2685.7	-0.0017164
2684.7	-0.0017136
2683.7	-0.0017118
2682.8	-0.0017130
2681.8	-0.0017160
2680.8	-0.0017189
2679.9	-0.0017192
2678.9	-0.0017170
2678.0	-0.0017147
2677.0	-0.0017138
2676.0	-0.0017147
2675.1	-0.0017165
2674.1	-0.0017152
2673.1	-0.0017111
2672.2	-0.0017087
2671.2	-0.0017075
2670.2	-0.0017058
2669.3	-0.0017049
2668.3	-0.0017032
2667.3	-0.0017013
2666.4	-0.0017023
2665.4	-0.0017027
2664.5	-0.0017004
2663.5	-0.0016990
2662.5	-0.0017004
2661.6	-0.0017039
2660.6	-0.0017068
2659.6	-0.0017048
2658.7	-0.0016994
2657.7	-0.0016964
2656.7	-0.0016962
2655.8	-0.0016952
2654.8	-0.0016929
2653.8	-0.0016912
2652.9	-0.0016910
2651.9	-0.0016922
2651.0	-0.0016934
2650.0	-0.0016927
2649.0	-0.0016913
2648.1	-0.0016892
2647.1	-0.0016862
2646.1	-0.0016841
2645.2	-0.0016831
2644.2	-0.0016810
2643.2	-0.0016783
2642.3	-0.0016774
2641.3	-0.0016783
2640.3	-0.0016776
2639.4	-0.0016741
2638.4	-0.0016705
2637.5	-0.0016696
2636.5	-0.0016692
2635.5	-0.0016672
2634.6	-0.0016651
2633.6	-0.0016635
2632.6	-0.0016618
2631.7	-0.0016609
2630.7	-0.0016616
2629.7	-0.0016633
2628.8	-0.0016647
2627.8	-0.0016654
2626.8	-0.0016654
2625.9	-0.0016657
2624.9	-0.0016662
2624.0	-0.0016659
2623.0	-0.0016653
2622.0	-0.0016670
2621.1	-0.0016704
2620.1	-0.0016721
2619.1	-0.0016722
2618.2	-0.0016722
2617.2	-0.0016726
2616.2	-0.0016725
2615.3	-0.0016706
2614.3	-0.0016694
2613.3	-0.0016691
2612.4	-0.0016675
2611.4	-0.0016667
2610.5	-0.0016680
2609.5	-0.0016687
2608.5	-0.0016678
2607.6	-0.0016662
2606.6	-0.0016651
2605.6	-0.0016659
2604.7	-0.0016652
2603.7	-0.0016623
2602.7	-0.0016630
2601.8	-0.0016686
2600.8	-0.0016725
2599.8	-0.0016715
2598.9	-0.0016679
2597.9	-0.0016639
2597.0	-0.0016616
2596.0	-0.0016623
2595.0	-0.0016642
2594.1	-0.0016666
2593.1	-0.0016690
2592.1	-0.0016681
2591.2	-0.0016650
2590.2	-0.0016633
2589.2	-0.0016622
2588.3	-0.0016606
2587.3	-0.0016586
2586.3	-0.0016580
2585.4	-0.0016606
2584.4	-0.0016626
2583.5	-0.0016611
2582.5	-0.0016575
2581.5	-0.0016540
2580.6	-0.0016518
2579.6	-0.0016510
2578.6	-0.0016500
2577.7	-0.0016480
2576.7	-0.0016458
2575.7	-0.0016462
2574.8	-0.0016483
2573.8	-0.0016487
2572.8	-0.0016482
2571.9	-0.0016495
2570.9	-0.0016500
2570.0	-0.0016474
2569.0	-0.0016459
2568.0	-0.0016463
2567.1	-0.0016434
2566.1	-0.0016381
2565.1	-0.0016379
2564.2	-0.0016425
2563.2	-0.0016463
2562.2	-0.0016459
2561.3	-0.0016420
2560.3	-0.0016398
2559.3	-0.0016418
2558.4	-0.0016449
2557.4	-0.0016471
2556.4	-0.0016469
2555.5	-0.0016444
2554.5	-0.0016430
2553.6	-0.0016444
2552.6	-0.0016473
2551.6	-0.0016496
2550.7	-0.0016495
2549.7	-0.0016465
2548.7	-0.0016432
2547.8	-0.0016415
2546.8	-0.0016379
2545.8	-0.0016308
2544.9	-0.0016232
2543.9	-0.0016167
2542.9	-0.0016104
2542.0	-0.0016019
2541.0	-0.0015927
2540.1	-0.0015874
2539.1	-0.0015860
2538.1	-0.0015818
2537.2	-0.0015730
2536.2	-0.0015632
2535.2	-0.0015534
2534.3	-0.0015439
2533.3	-0.0015375
2532.3	-0.0015330
2531.4	-0.0015291
2530.4	-0.0015284
2529.4	-0.0015281
2528.5	-0.0015265
2527.5	-0.0015268
2526.6	-0.0015291
2525.6	-0.0015306
2524.6	-0.0015322
2523.7	-0.0015352
2522.7	-0.0015398
2521.7	-0.0015454
2520.8	-0.0015519
2519.8	-0.0015587
2518.8	-0.0015657
2517.9	-0.0015732
2516.9	-0.0015810
2515.9	-0.0015870
2515.0	-0.0015929
2514.0	-0.0015990
2513.1	-0.0016023
2512.1	-0.0016036
2511.1	-0.0016064
2510.2	-0.0016107
2509.2	-0.0016150
2508.2	-0.0016169
2507.3	-0.0016164
2506.3	-0.0016144
2505.3	-0.0016128
2504.4	-0.0016141
2503.4	-0.0016181
2502.4	-0.0016210
2501.5	-0.0016210
2500.5	-0.0016189
2499.6	-0.0016155
2498.6	-0.0016131
2497.6	-0.0016113
2496.7	-0.0016068
2495.7	-0.0016046
2494.7	-0.0016088
2493.8	-0.0016124
2492.8	-0.0016125
2491.8	-0.0016135
2490.9	-0.0016139
2489.9	-0.0016104
2488.9	-0.0016073
2488.0	-0.0016056
2487.0	-0.0016030
2486.1	-0.0016010
2485.1	-0.0016028
2484.1	-0.0016078
2483.2	-0.0016122
2482.2	-0.0016134
2481.2	-0.0016109
2480.3	-0.0016086
2479.3	-0.0016107
2478.3	-0.0016151
2477.4	-0.0016190
2476.4	-0.0016245
2475.4	-0.0016294
2474.5	-0.0016286
2473.5	-0.0016232
2472.6	-0.0016191
2471.6	-0.0016187
2470.6	-0.0016184
2469.7	-0.0016147
2468.7	-0.0016110
2467.7	-0.0016117
2466.8	-0.0016170
2465.8	-0.0016214
2464.8	-0.0016199
2463.9	-0.0016170
2462.9	-0.0016171
2461.9	-0.0016174
2461.0	-0.0016161
2460.0	-0.0016155
2459.1	-0.0016158
2458.1	-0.0016156
2457.1	-0.0016139
2456.2	-0.0016114
2455.2	-0.0016084
2454.2	-0.0016055
2453.3	-0.0016041
2452.3	-0.0016043
2451.3	-0.0016043
2450.4	-0.0016026
2449.4	-0.0016005
2448.4	-0.0016000
2447.5	-0.0016001
2446.5	-0.0015994
2445.6	-0.0015977
2444.6	-0.0015958
2443.6	-0.0015950
2442.7	-0.0015949
2441.7	-0.0015934
2440.7	-0.0015894
2439.8	-0.0015852
2438.8	-0.0015815
2437.8	-0.0015796
2436.9	-0.0015797
2435.9	-0.0015806
2434.9	-0.0015822
2434.0	-0.0015852
2433.0	-0.0015863
2432.1	-0.0015825
2431.1	-0.0015780
2430.1	-0.0015786
2429.2	-0.0015824
2428.2	-0.0015846
2427.2	-0.0015863
2426.3	-0.0015911
2425.3	-0.0015952
2424.3	-0.0015954
2423.4	-0.0015960
2422.4	-0.0015982
2421.4	-0.0015978
2420.5	-0.0015954
2419.5	-0.0015949
2418.5	-0.0015958
2417.6	-0.0015972
2416.6	-0.0015992
2415.7	-0.0016010
2414.7	-0.0016018
2413.7	-0.0016010
2412.8	-0.0016018
2411.8	-0.0016048
2410.8	-0.0016046
2409.9	-0.0016022
2408.9	-0.0016024
2407.9	-0.0016022
2407.0	-0.0015997
2406.0	-0.0015966
2405.0	-0.0015944
2404.1	-0.0015941
2403.1	-0.0015949
2402.2	-0.0015942
2401.2	-0.0015941
2400.2	-0.0015964
2399.3	-0.0015978
2398.3	-0.0015972
2397.3	-0.0015973
2396.4	-0.0015974
2395.4	-0.0015962
2394.4	-0.0015955
2393.5	-0.0015937
2392.5	-0.0015897
2391.5	-0.0015865
2390.6	-0.0015862
2389.6	-0.0015883
2388.7	-0.0015896
2387.7	-0.0015892
2386.7	-0.0015896
2385.8	-0.0015906
2384.8	-0.0015900
2383.8	-0.0015883
2382.9	-0.0015864
2381.9	-0.0015847
2380.9	-0.0015851
2380.0	-0.0015862
2379.0	-0.0015851
2378.0	-0.0015835
2377.1	-0.0015842
2376.1	-0.0015862
2375.2	-0.0015887
2374.2	-0.0015915
2373.2	-0.0015928
2372.3	-0.0015926
2371.3	-0.0015932
2370.3	-0.0015946
2369.4	-0.0015945
2368.4	-0.0015925
2367.4	-0.0015918
2366.5	-0.0015956
2365.5	-0.0016031
2364.5	-0.0016101
2363.6	-0.0016133
2362.6	-0.0016130
2361.7	-0.0016115
2360.7	-0.0016117
2359.7	-0.0016116
2358.8	-0.0016111
2357.8	-0.0016119
2356.8	-0.0016105
2355.9	-0.0016049
2354.9	-0.0016000
2353.9	-0.0015994
2353.0	-0.0016001
2352.0	-0.0015983
2351.0	-0.0015946
2350.1	-0.0015918
2349.1	-0.0015902
2348.2	-0.0015880
2347.2	-0.0015847
2346.2	-0.0015831
2345.3	-0.0015868
2344.3	-0.0015935
2343.3	-0.0015984
2342.4	-0.0015988
2341.4	-0.0015950
2340.4	-0.0015914
2339.5	-0.0015915
2338.5	-0.0015918
2337.5	-0.0015901
2336.6	-0.0015879
2335.6	-0.0015855
2334.7	-0.0015832
2333.7	-0.0015814
2332.7	-0.0015802
2331.8	-0.0015793
2330.8	-0.0015778
2329.8	-0.0015766
2328.9	-0.0015759
2327.9	-0.0015732
2326.9	-0.0015704
2326.0	-0.0015705
2325.0	-0.0015723
2324.0	-0.0015724
2323.1	-0.0015697
2322.1	-0.0015683
2321.2	-0.0015693
2320.2	-0.0015697
2319.2	-0.0015691
2318.3	-0.0015690
2317.3	-0.0015681
2316.3	-0.0015640
2315.4	-0.0015594
2314.4	-0.0015607
2313.4	-0.0015665
2312.5	-0.0015691
2311.5	-0.0015682
2310.5	-0.0015681
2309.6	-0.0015688
2308.6	-0.0015699
2307.7	-0.0015724
2306.7	-0.0015737
2305.7	-0.0015714
2304.8	-0.0015698
2303.8	-0.0015719
2302.8	-0.0015742
2301.9	-0.0015744
2300.9	-0.0015737
2299.9	-0.0015740
2299.0	-0.0015748
2298.0	-0.0015747
2297.0	-0.0015734
2296.1	-0.0015704
2295.1	-0.0015663
2294.2	-0.0015646
2293.2	-0.0015665
2292.2	-0.0015675
2291.3	-0.0015648
2290.3	-0.0015631
2289.3	-0.0015645
2288.4	-0.0015643
2287.4	-0.0015625
2286.4	-0.0015624
2285.5	-0.0015633
2284.5	-0.0015625
2283.5	-0.0015592
2282.6	-0.0015562
2281.6	-0.0015552
2280.7	-0.0015549
2279.7	-0.0015519
2278.7	-0.0015477
2277.8	-0.0015454
2276.8	-0.0015442
2275.8	-0.0015430
2274.9	-0.0015415
2273.9	-0.0015372
2272.9	-0.0015305
2272.0	-0.0015253
2271.0	-0.0015208
2270.0	-0.0015158
2269.1	-0.0015133
2268.1	-0.0015109
2267.1	-0.0015050
2266.2	-0.0015004
2265.2	-0.0015014
2264.3	-0.0015040
2263.3	-0.0015030
2262.3	-0.0014993
2261.4	-0.0014987
2260.4	-0.0015020
2259.4	-0.0015019
2258.5	-0.0014966
2257.5	-0.0014927
2256.5	-0.0014942
2255.6	-0.0014999
2254.6	-0.0015059
2253.6	-0.0015084
2252.7	-0.0015081
2251.7	-0.0015103
2250.8	-0.0015179
2249.8	-0.0015284
2248.8	-0.0015341
2247.9	-0.0015333
2246.9	-0.0015323
2245.9	-0.0015354
2245.0	-0.0015399
2244.0	-0.0015410
2243.0	-0.0015391
2242.1	-0.0015390
2241.1	-0.0015427
2240.1	-0.0015471
2239.2	-0.0015469
2238.2	-0.0015435
2237.3	-0.0015413
2236.3	-0.0015409
2235.3	-0.0015406
2234.4	-0.0015391
2233.4	-0.0015375
2232.4	-0.0015374
2231.5	-0.0015389
2230.5	-0.0015406
2229.5	-0.0015421
2228.6	-0.0015429
2227.6	-0.0015406
2226.6	-0.0015345
2225.7	-0.0015299
2224.7	-0.0015320
2223.8	-0.0015393
2222.8	-0.0015453
2221.8	-0.0015472
2220.9	-0.0015470
2219.9	-0.0015465
2218.9	-0.0015459
2218.0	-0.0015450
2217.0	-0.0015430
2216.0	-0.0015399
2215.1	-0.0015366
2214.1	-0.0015368
2213.1	-0.0015412
2212.2	-0.0015447
2211.2	-0.0015444
2210.3	-0.0015415
2209.3	-0.0015380
2208.3	-0.0015358
2207.4	-0.0015357
2206.4	-0.0015379
2205.4	-0.0015411
2204.5	-0.0015424
2203.5	-0.0015405
2202.5	-0.0015382
2201.6	-0.0015395
2200.6	-0.0015428
2199.6	-0.0015439
2198.7	-0.0015422
2197.7	-0.0015407
2196.8	-0.0015404
2195.8	-0.0015406
2194.8	-0.0015417
2193.9	-0.0015433
2192.9	-0.0015422
2191.9	-0.0015407
2191.0	-0.0015427
2190.0	-0.0015438
2189.0	-0.0015406
2188.1	-0.0015372
2187.1	-0.0015365
2186.1	-0.0015381
2185.2	-0.0015392
2184.2	-0.0015376
2183.3	-0.0015366
2182.3	-0.0015374
2181.3	-0.0015374
2180.4	-0.0015386
2179.4	-0.0015425
2178.4	-0.0015451
2177.5	-0.0015448
2176.5	-0.0015423
2175.5	-0.0015386
2174.6	-0.0015347
2173.6	-0.0015321
2172.6	-0.0015304
2171.7	-0.0015288
2170.7	-0.0015283
2169.8	-0.0015299
2168.8	-0.0015298
2167.8	-0.0015255
2166.9	-0.0015208
2165.9	-0.0015208
2164.9	-0.0015237
2164.0	-0.0015245
2163.0	-0.0015211
2162.0	-0.0015162
2161.1	-0.0015143
2160.1	-0.0015137
2159.1	-0.0015120
2158.2	-0.0015108
2157.2	-0.0015116
2156.3	-0.0015135
2155.3	-0.0015154
2154.3	-0.0015165
2153.4	-0.0015171
2152.4	-0.0015176
2151.4	-0.0015171
2150.5	-0.0015160
2149.5	-0.0015147
2148.5	-0.0015133
2147.6	-0.0015117
2146.6	-0.0015115
2145.6	-0.0015144
2144.7	-0.0015179
2143.7	-0.0015197
2142.8	-0.0015207
2141.8	-0.0015196
2140.8	-0.0015147
2139.9	-0.0015099
2138.9	-0.0015092
2137.9	-0.0015098
2137.0	-0.0015095
2136.0	-0.0015098
2135.0	-0.0015102
2134.1	-0.0015074
2133.1	-0.0015032
2132.1	-0.0015034
2131.2	-0.0015066
2130.2	-0.0015070
2129.2	-0.0015053
2128.3	-0.0015040
2127.3	-0.0015016
2126.4	-0.0015000
2125.4	-0.0015024
2124.4	-0.0015064
2123.5	-0.0015080
2122.5	-0.0015079
2121.5	-0.0015080
2120.6	-0.0015082
2119.6	-0.0015085
2118.6	-0.0015086
2117.7	-0.0015081
2116.7	-0.0015086
2115.7	-0.0015105
2114.8	-0.0015128
2113.8	-0.0015140
2112.9	-0.0015121
2111.9	-0.0015073
2110.9	-0.0015032
2110.0	-0.0015011
2109.0	-0.0015004
2108.0	-0.0014992
2107.1	-0.0014959
2106.1	-0.0014931
2105.1	-0.0014924
2104.2	-0.0014910
2103.2	-0.0014867
2102.2	-0.0014811
2101.3	-0.0014768
2100.3	-0.0014758
2099.4	-0.0014780
2098.4	-0.0014810
2097.4	-0.0014813
2096.5	-0.0014791
2095.5	-0.0014756
2094.5	-0.0014703
2093.6	-0.0014665
2092.6	-0.0014671
2091.6	-0.0014680
2090.7	-0.0014657
2089.7	-0.0014603
2088.7	-0.0014551
2087.8	-0.0014541
2086.8	-0.0014546
2085.9	-0.0014530
2084.9	-0.0014518
2083.9	-0.0014515
2083.0	-0.0014510
2082.0	-0.0014507
2081.0	-0.0014504
2080.1	-0.0014492
2079.1	-0.0014484
2078.1	-0.0014486
2077.2	-0.0014489
2076.2	-0.0014495
2075.2	-0.0014507
2074.3	-0.0014505
2073.3	-0.0014490
2072.4	-0.0014475
2071.4	-0.0014441
2070.4	-0.0014407
2069.5	-0.0014414
2068.5	-0.0014424
2067.5	-0.0014401
2066.6	-0.0014371
2065.6	-0.0014354
2064.6	-0.0014351
2063.7	-0.0014363
2062.7	-0.0014385
2061.7	-0.0014401
2060.8	-0.0014397
2059.8	-0.0014379
2058.9	-0.0014379
2057.9	-0.0014401
2056.9	-0.0014428
2056.0	-0.0014446
2055.0	-0.0014442
2054.0	-0.0014447
2053.1	-0.0014473
2052.1	-0.0014495
2051.1	-0.0014501
2050.2	-0.0014501
2049.2	-0.0014500
2048.2	-0.0014519
2047.3	-0.0014544
2046.3	-0.0014559
2045.4	-0.0014574
2044.4	-0.0014598
2043.4	-0.0014610
2042.5	-0.0014597
2041.5	-0.0014578
2040.5	-0.0014596
2039.6	-0.0014664
2038.6	-0.0014723
2037.6	-0.0014732
2036.7	-0.0014695
2035.7	-0.0014637
2034.7	-0.0014598
2033.8	-0.0014577
2032.8	-0.0014546
2031.9	-0.0014501
2030.9	-0.0014491
2029.9	-0.0014516
2029.0	-0.0014481
2028.0	-0.0014380
2027.0	-0.0014309
2026.1	-0.0014287
2025.1	-0.0014266
2024.1	-0.0014244
2023.2	-0.0014250
2022.2	-0.0014270
2021.2	-0.0014277
2020.3	-0.0014267
2019.3	-0.0014243
2018.4	-0.0014226
2017.4	-0.0014245
2016.4	-0.0014292
2015.5	-0.0014329
2014.5	-0.0014353
2013.5	-0.0014376
2012.6	-0.0014400
2011.6	-0.0014438
2010.6	-0.0014487
2009.7	-0.0014513
2008.7	-0.0014518
2007.7	-0.0014538
2006.8	-0.0014595
2005.8	-0.0014654
2004.9	-0.0014669
2003.9	-0.0014658
2002.9	-0.0014654
2002.0	-0.0014659
2001.0	-0.0014665
2000.0	-0.0014674
1999.1	-0.0014686
1998.1	-0.0014682
1997.1	-0.0014663
1996.2	-0.0014650
1995.2	-0.0014660
1994.2	-0.0014674
1993.3	-0.0014643
1992.3	-0.0014567
1991.3	-0.0014506
1990.4	-0.0014480
1989.4	-0.0014456
1988.5	-0.0014423
1987.5	-0.0014400
1986.5	-0.0014398
1985.6	-0.0014419
1984.6	-0.0014459
1983.6	-0.0014482
1982.7	-0.0014479
1981.7	-0.0014455
1980.7	-0.0014422
1979.8	-0.0014413
1978.8	-0.0014432
1977.8	-0.0014443
1976.9	-0.0014447
1975.9	-0.0014480
1975.0	-0.0014545
1974.0	-0.0014593
1973.0	-0.0014604
1972.1	-0.0014615
1971.1	-0.0014637
1970.1	-0.0014641
1969.2	-0.0014641
1968.2	-0.0014663
1967.2	-0.0014692
1966.3	-0.0014712
1965.3	-0.0014724
1964.3	-0.0014720
1963.4	-0.0014701
1962.4	-0.0014694
1961.5	-0.0014744
1960.5	-0.0014880
1959.5	-0.0014977
1958.6	-0.0014866
1957.6	-0.0014697
1956.6	-0.0014662
1955.7	-0.0014701
1954.7	-0.0014735
1953.7	-0.0014761
1952.8	-0.0014781
1951.8	-0.0014797
1950.8	-0.0014786
1949.9	-0.0014737
1948.9	-0.0014693
1948.0	-0.0014700
1947.0	-0.0014742
1946.0	-0.0014786
1945.1	-0.0014804
1944.1	-0.0014780
1943.1	-0.0014737
1942.2	-0.0014712
1941.2	-0.0014705
1940.2	-0.0014706
1939.3	-0.0014723
1938.3	-0.0014732
1937.3	-0.0014713
1936.4	-0.0014704
1935.4	-0.0014735
1934.5	-0.0014765
1933.5	-0.0014750
1932.5	-0.0014726
1931.6	-0.0014728
1930.6	-0.0014716
1929.6	-0.0014681
1928.7	-0.0014675
1927.7	-0.0014692
1926.7	-0.0014674
1925.8	-0.0014613
1924.8	-0.0014541
1923.8	-0.0014460
1922.9	-0.0014378
1921.9	-0.0014313
1921.0	-0.0014245
1920.0	-0.0014149
1919.0	-0.0014041
1918.1	-0.0013975
1917.1	-0.0013978
1916.1	-0.0014018
1915.2	-0.0014044
1914.2	-0.0014028
1913.2	-0.0013972
1912.3	-0.0013908
1911.3	-0.0013878
1910.3	-0.0013908
1909.4	-0.0013974
1908.4	-0.0014017
1907.5	-0.0014028
1906.5	-0.0014042
1905.5	-0.0014094
1904.6	-0.0014175
1903.6	-0.0014267
1902.6	-0.0014362
1901.7	-0.0014437
1900.7	-0.0014484
1899.7	-0.0014519
1898.8	-0.0014552
1897.8	-0.0014579
1896.8	-0.0014596
1895.9	-0.0014613
1894.9	-0.0014626
1894.0	-0.0014623
1893.0	-0.0014597
1892.0	-0.0014557
1891.1	-0.0014522
1890.1	-0.0014511
1889.1	-0.0014530
1888.2	-0.0014547
1887.2	-0.0014537
1886.2	-0.0014525
1885.3	-0.0014522
1884.3	-0.0014500
1883.3	-0.0014454
1882.4	-0.0014413
1881.4	-0.0014373
1880.5	-0.0014329
1879.5	-0.0014292
1878.5	-0.0014245
1877.6	-0.0014149
1876.6	-0.0014030
1875.6	-0.0013925
1874.7	-0.0013831
1873.7	-0.0013752
1872.7	-0.0013686
1871.8	-0.0013634
1870.8	-0.0013624
1869.8	-0.0013646
1868.9	-0.0013669
1867.9	-0.0013696
1867.0	-0.0013727
1866.0	-0.0013734
1865.0	-0.0013714
1864.1	-0.0013709
1863.1	-0.0013736
1862.1	-0.0013775
1861.2	-0.0013822
1860.2	-0.0013890
1859.2	-0.0013966
1858.3	-0.0014044
1857.3	-0.0014143
1856.3	-0.0014248
1855.4	-0.0014309
1854.4	-0.0014334
1853.5	-0.0014373
1852.5	-0.0014425
1851.5	-0.0014443
1850.6	-0.0014446
1849.6	-0.0014461
1848.6	-0.0014455
1847.7	-0.0014458
1846.7	-0.0014495
1845.7	-0.0014497
1844.8	-0.0014447
1843.8	-0.0014446
1842.8	-0.0014500
1841.9	-0.0014547
1840.9	-0.0014587
1839.9	-0.0014603
1839.0	-0.0014583
1838.0	-0.0014552
1837.1	-0.0014522
1836.1	-0.0014489
1835.1	-0.0014476
1834.2	-0.0014494
1833.2	-0.0014510
1832.2	-0.0014489
1831.3	-0.0014418
1830.3	-0.0014355
1829.3	-0.0014361
1828.4	-0.0014381
1827.4	-0.0014346
1826.4	-0.0014268
1825.5	-0.0014226
1824.5	-0.0014250
1823.6	-0.0014284
1822.6	-0.0014301
1821.6	-0.0014312
1820.7	-0.0014304
1819.7	-0.0014289
1818.7	-0.0014278
1817.8	-0.0014270
1816.8	-0.0014280
1815.8	-0.0014307
1814.9	-0.0014319
1813.9	-0.0014299
1812.9	-0.0014285
1812.0	-0.0014304
1811.0	-0.0014335
1810.1	-0.0014353
1809.1	-0.0014361
1808.1	-0.0014371
1807.2	-0.0014378
1806.2	-0.0014347
1805.2	-0.0014283
1804.3	-0.0014235
1803.3	-0.0014209
1802.3	-0.0014192
1801.4	-0.0014193
1800.4	-0.0014205
1799.4	-0.0014227
1798.5	-0.0014246
1797.5	-0.0014237
1796.6	-0.0014213
1795.6	-0.0014211
1794.6	-0.0014193
1793.7	-0.0014135
1792.7	-0.0014096
1791.7	-0.0014113
1790.8	-0.0014155
1789.8	-0.0014195
1788.8	-0.0014212
1787.9	-0.0014219
1786.9	-0.0014220
1785.9	-0.0014185
1785.0	-0.0014162
1784.0	-0.0014212
1783.1	-0.0014276
1782.1	-0.0014306
1781.1	-0.0014309
1780.2	-0.0014305
1779.2	-0.0014330
1778.2	-0.0014385
1777.3	-0.0014410
1776.3	-0.0014386
1775.3	-0.0014361
1774.4	-0.0014331
1773.4	-0.0014279
1772.4	-0.0014237
1771.5	-0.0014218
1770.5	-0.0014191
1769.6	-0.0014094
1768.6	-0.0013968
1767.6	-0.0013958
1766.7	-0.0014033
1765.7	-0.0014056
1764.7	-0.0014011
1763.8	-0.0013941
1762.8	-0.0013866
1761.8	-0.0013825
1760.9	-0.0013821
1759.9	-0.0013801
1758.9	-0.0013739
1758.0	-0.0013635
1757.0	-0.0013524
1756.1	-0.0013462
1755.1	-0.0013430
1754.1	-0.0013391
1753.2	-0.0013315
1752.2	-0.0013180
1751.2	-0.0013103
1750.3	-0.0013183
1749.3	-0.0013300
1748.3	-0.0013366
1747.4	-0.0013420
1746.4	-0.0013462
1745.4	-0.0013464
1744.5	-0.0013442
1743.5	-0.0013437
1742.6	-0.0013487
1741.6	-0.0013579
1740.6	-0.0013654
1739.7	-0.0013689
1738.7	-0.0013729
1737.7	-0.0013822
1736.8	-0.0013928
1735.8	-0.0013938
1734.8	-0.0013848
1733.9	-0.0013795
1732.9	-0.0013884
1731.9	-0.0014020
1731.0	-0.0014071
1730.0	-0.0014068
1729.1	-0.0014106
1728.1	-0.0014177
1727.1	-0.0014232
1726.2	-0.0014249
1725.2	-0.0014237
1724.2	-0.0014208
1723.3	-0.0014177
1722.3	-0.0014176
1721.3	-0.0014208
1720.4	-0.0014227
1719.4	-0.0014169
1718.4	-0.0014046
1717.5	-0.0013993
1716.5	-0.0014049
1715.6	-0.0014097
1714.6	-0.0014139
1713.6	-0.0014221
1712.7	-0.0014277
1711.7	-0.0014271
1710.7	-0.0014253
1709.8	-0.0014265
1708.8	-0.0014281
1707.8	-0.0014272
1706.9	-0.0014257
1705.9	-0.0014254
1704.9	-0.0014257
1704.0	-0.0014259
1703.0	-0.0014235
1702.0	-0.0014164
1701.1	-0.0014091
1700.1	-0.0014115
1699.2	-0.0014205
1698.2	-0.0014232
1697.2	-0.0014156
1696.3	-0.0014082
1695.3	-0.0014139
1694.3	-0.0014261
1693.4	-0.0014312
1692.4	-0.0014304
1691.4	-0.0014289
1690.5	-0.0014281
1689.5	-0.0014285
1688.5	-0.0014290
1687.6	-0.0014297
1686.6	-0.0014276
1685.7	-0.0014193
1684.7	-0.0014112
1683.7	-0.0014104
1682.8	-0.0014135
1681.8	-0.0014144
1680.8	-0.0014127
1679.9	-0.0014146
1678.9	-0.0014205
1677.9	-0.0014241
1677.0	-0.0014234
1676.0	-0.0014217
1675.0	-0.0014238
1674.1	-0.0014286
1673.1	-0.0014303
1672.2	-0.0014302
1671.2	-0.0014317
1670.2	-0.0014314
1669.3	-0.0014276
1668.3	-0.0014264
1667.3	-0.0014304
1666.4	-0.0014365
1665.4	-0.0014439
1664.4	-0.0014487
1663.5	-0.0014458
1662.5	-0.0014398
1661.5	-0.0014377
1660.6	-0.0014388
1659.6	-0.0014405
1658.7	-0.0014413
1657.7	-0.0014397
1656.7	-0.0014369
1655.8	-0.0014318
1654.8	-0.0014242
1653.8	-0.0014220
1652.9	-0.0014276
1651.9	-0.0014344
1650.9	-0.0014375
1650.0	-0.0014368
1649.0	-0.0014325
1648.0	-0.0014248
1647.1	-0.0014179
1646.1	-0.0014182
1645.2	-0.0014237
1644.2	-0.0014264
1643.2	-0.0014226
1642.3	-0.0014157
1641.3	-0.0014099
1640.3	-0.0014054
1639.4	-0.0013963
1638.4	-0.0013799
1637.4	-0.0013596
1636.5	-0.0013347
1635.5	-0.0013015
1634.5	-0.0012571
1633.6	-0.0012016
1632.6	-0.0011407
1631.7	-0.0010799
1630.7	-0.0010188
1629.7	-0.0009583
1628.8	-0.0009060
1627.8	-0.0008682
1626.8	-0.0008400
1625.9	-0.0008118
1624.9	-0.0007789
1623.9	-0.0007447
1623.0	-0.0007148
1622.0	-0.0006864
1621.0	-0.0006542
1620.1	-0.0006195
1619.1	-0.0005838
1618.2	-0.0005436
1617.2	-0.0004965
1616.2	-0.0004442
1615.3	-0.0003855
1614.3	-0.0003165
1613.3	-0.0002373
1612.4	-0.0001552
1611.4	-0.0000857
1610.4	-0.0000456
1609.5	-0.0000417
1608.5	-0.0000656
1607.5	-0.0000963
1606.6	-0.0001164
1605.6	-0.0001249
1604.7	-0.0001272
1603.7	-0.0001270
1602.7	-0.0001316
1601.8	-0.0001473
1600.8	-0.0001755
1599.8	-0.0002161
1598.9	-0.0002697
1597.9	-0.0003352
1596.9	-0.0004130
1596.0	-0.0005019
1595.0	-0.0005948
1594.0	-0.0006861
1593.1	-0.0007739
1592.1	-0.0008527
1591.2	-0.0009191
1590.2	-0.0009754
1589.2	-0.0010249
1588.3	-0.0010686
1587.3	-0.0011060
1586.3	-0.0011357
1585.4	-0.0011565
1584.4	-0.0011705
1583.4	-0.0011819
1582.5	-0.0011933
1581.5	-0.0012028
1580.5	-0.0012105
1579.6	-0.0012219
1578.6	-0.0012380
1577.7	-0.0012524
1576.7	-0.0012606
1575.7	-0.0012654
1574.8	-0.0012682
1573.8	-0.0012680
1572.8	-0.0012675
1571.9	-0.0012689
1570.9	-0.0012715
1569.9	-0.0012752
1569.0	-0.0012832
1568.0	-0.0012973
1567.0	-0.0013148
1566.1	-0.0013315
1565.1	-0.0013445
1564.1	-0.0013547
1563.2	-0.0013634
1562.2	-0.0013659
1561.3	-0.0013584
1560.3	-0.0013474
1559.3	-0.0013457
1558.4	-0.0013574
1557.4	-0.0013727
1556.4	-0.0013765
1555.5	-0.0013637
1554.5	-0.0013507
1553.5	-0.0013539
1552.6	-0.0013630
1551.6	-0.0013625
1550.6	-0.0013541
1549.7	-0.0013485
1548.7	-0.0013489
1547.8	-0.0013483
1546.8	-0.0013404
1545.8	-0.0013273
1544.9	-0.0013167
1543.9	-0.0013071
1542.9	-0.0012918
1542.0	-0.0012735
1541.0	-0.0012542
1540.0	-0.0012305
1539.1	-0.0012036
1538.1	-0.0011724
1537.1	-0.0011294
1536.2	-0.0010705
1535.2	-0.0009982
1534.3	-0.0009156
1533.3	-0.0008268
1532.3	-0.0007306
1531.4	-0.0006234
1530.4	-0.0005087
1529.4	-0.0003919
1528.5	-0.0002772
1527.5	-0.0001704
1526.5	-0.0000714
1525.6	0.0000296
1524.6	0.0001423
1523.6	0.0002818
1522.7	0.0004709
1521.7	0.0007130
1520.8	0.0009986
1519.8	0.0013380
1518.8	0.0017657
1517.9	0.0023094
1516.9	0.0029636
1515.9	0.0036932
1515.0	0.0044461
1514.0	0.0051541
1513.0	0.0057365
1512.1	0.0061150
1511.1	0.0062620
1510.1	0.0062717
1509.2	0.0063333
1508.2	0.0065248
1507.3	0.0067097
1506.3	0.0067720
1505.3	0.0067656
1504.4	0.0067602
1503.4	0.0067308
1502.4	0.0065949
1501.5	0.0062817
1500.5	0.0057773
1499.5	0.0051131
1498.6	0.0043466
1497.6	0.0035542
1496.6	0.0027874
1495.7	0.0020771
1494.7	0.0014601
1493.8	0.0009491
1492.8	0.0005331
1491.8	0.0002018
1490.9	-0.0000534
1489.9	-0.0002452
1488.9	-0.0003845
1488.0	-0.0004750
1487.0	-0.0005160
1486.0	-0.0005124
1485.1	-0.0004773
1484.1	-0.0004226
1483.1	-0.0003623
1482.2	-0.0003151
1481.2	-0.0002947
1480.3	-0.0002874
1479.3	-0.0002468
1478.3	-0.0001501
1477.4	-0.0000517
1476.4	-0.0000177
1475.4	-0.0000341
1474.5	-0.0000420
1473.5	-0.0000159
1472.5	0.0000376
1471.6	0.0000971
1470.6	0.0001175
1469.6	0.0000728
1468.7	-0.0000126
1467.7	-0.0001059
1466.8	-0.0001928
1465.8	-0.0002693
1464.8	-0.0003305
1463.9	-0.0003485
1462.9	-0.0002815
1461.9	-0.0001644
1461.0	-0.0001187
1460.0	-0.0001780
1459.0	-0.0002395
1458.1	-0.0002274
1457.1	-0.0001661
1456.1	-0.0001135
1455.2	-0.0000906
1454.2	-0.0000903
1453.3	-0.0001163
1452.3	-0.0001825
1451.3	-0.0002826
1450.4	-0.0003782
1449.4	-0.0004309
1448.4	-0.0004400
1447.5	-0.0004364
1446.5	-0.0004471
1445.5	-0.0004793
1444.6	-0.0005333
1443.6	-0.0006085
1442.6	-0.0006997
1441.7	-0.0007989
1440.7	-0.0008980
1439.8	-0.0009895
1438.8	-0.0010629
1437.8	-0.0011111
1436.9	-0.0011485
1435.9	-0.0011955
1434.9	-0.0012435
1434.0	-0.0012754
1433.0	-0.0012956
1432.0	-0.0013120
1431.1	-0.0013250
1430.1	-0.0013347
1429.1	-0.0013415
1428.2	-0.0013454
1427.2	-0.0013483
1426.3	-0.0013496
1425.3	-0.0013462
1424.3	-0.0013414
1423.4	-0.0013412
1422.4	-0.0013448
1421.4	-0.0013453
1420.5	-0.0013344
1419.5	-0.0013205
1418.5	-0.0013167
1417.6	-0.0013177
1416.6	-0.0013179
1415.6	-0.0013180
1414.7	-0.0013148
1413.7	-0.0013065
1412.7	-0.0012953
1411.8	-0.0012816
1410.8	-0.0012674
1409.9	-0.0012577
1408.9	-0.0012537
1407.9	-0.0012513
1407.0	-0.0012448
1406.0	-0.0012320
1405.0	-0.0012218
1404.1	-0.0012205
1403.1	-0.0012241
1402.1	-0.0012293
1401.2	-0.0012334
1400.2	-0.0012320
1399.2	-0.0012272
1398.3	-0.0012254
1397.3	-0.0012263
1396.4	-0.0012226
1395.4	-0.0012146
1394.4	-0.0012146
1393.5	-0.0012261
1392.5	-0.0012357
1391.5	-0.0012361
1390.6	-0.0012316
1389.6	-0.0012240
1388.6	-0.0012084
1387.7	-0.0011887
1386.7	-0.0011779
1385.7	-0.0011707
1384.8	-0.0011380
1383.8	-0.0010561
1382.9	-0.0009358
1381.9	-0.0008038
1380.9	-0.0006684
1380.0	-0.0005210
1379.0	-0.0003610
1378.0	-0.0002014
1377.1	-0.0000522
1376.1	0.0000871
1375.1	0.0002109
1374.2	0.0003034
1373.2	0.0003597
1372.2	0.0003966
1371.3	0.0004306
1370.3	0.0004641
1369.4	0.0004953
1368.4	0.0005246
1367.4	0.0005481
1366.5	0.0005555
1365.5	0.0005366
1364.5	0.0004872
1363.6	0.0004084
1362.6	0.0003071
1361.6	0.0001917
1360.7	0.0000658
1359.7	-0.0000661
1358.7	-0.0001943
1357.8	-0.0003150
1356.8	-0.0004270
1355.9	-0.0005289
1354.9	-0.0006226
1353.9	-0.0007089
1353.0	-0.0007850
1352.0	-0.0008492
1351.0	-0.0009045
1350.1	-0.0009537
1349.1	-0.0009958
1348.1	-0.0010302
1347.2	-0.0010605
1346.2	-0.0010899
1345.2	-0.0011173
1344.3	-0.0011404
1343.3	-0.0011610
1342.4	-0.0011809
1341.4	-0.0011965
1340.4	-0.0012061
1339.5	-0.0012133
1338.5	-0.0012210
1337.5	-0.0012288
1336.6	-0.0012386
1335.6	-0.0012504
1334.6	-0.0012590
1333.7	-0.0012629
1332.7	-0.0012702
1331.7	-0.0012813
1330.8	-0.0012864
1329.8	-0.0012858
1328.9	-0.0012892
1327.9	-0.0012956
1326.9	-0.0012987
1326.0	-0.0012974
1325.0	-0.0012922
1324.0	-0.0012849
1323.1	-0.0012798
1322.1	-0.0012795
1321.1	-0.0012790
1320.2	-0.0012673
1319.2	-0.0012449
1318.2	-0.0012235
1317.3	-0.0012052
1316.3	-0.0011829
1315.4	-0.0011531
1314.4	-0.0011187
1313.4	-0.0010820
1312.5	-0.0010454
1311.5	-0.0010150
1310.5	-0.0009974
1309.6	-0.0009877
1308.6	-0.0009729
1307.6	-0.0009536
1306.7	-0.0009386
1305.7	-0.0009264
1304.7	-0.0009097
1303.8	-0.0008895
1302.8	-0.0008734
1301.9	-0.0008645
1300.9	-0.0008597
1299.9	-0.0008576
1299.0	-0.0008623
1298.0	-0.0008728
1297.0	-0.0008841
1296.1	-0.0008944
1295.1	-0.0009034
1294.1	-0.0009106
1293.2	-0.0009182
1292.2	-0.0009250
1291.2	-0.0009258
1290.3	-0.0009190
1289.3	-0.0009066
1288.4	-0.0008853
1287.4	-0.0008549
1286.4	-0.0008189
1285.5	-0.0007749
1284.5	-0.0007203
1283.5	-0.0006519
1282.6	-0.0005569
1281.6	-0.0004240
1280.6	-0.0002503
1279.7	-0.0000253
1278.7	0.0002763
1277.7	0.0006851
1276.8	0.0012329
1275.8	0.0019439
1274.8	0.0028238
1273.9	0.0038429
1272.9	0.0049274
1272.0	0.0059675
1271.0	0.0068412
1270.0	0.0074365
1269.1	0.0076948
1268.1	0.0076660
1267.1	0.0075259
1266.2	0.0074952
1265.2	0.0075938
1264.2	0.0076205
1263.3	0.0075334
1262.3	0.0074847
1261.3	0.0074867
1260.4	0.0074014
1259.4	0.0071171
1258.5	0.0066054
1257.5	0.0059046
1256.5	0.0050844
1255.6	0.0042273
1254.6	0.0034124
1253.6	0.0026883
1252.7	0.0020698
1251.7	0.0015624
1250.7	0.0011688
1249.8	0.0008823
1248.8	0.0006861
1247.8	0.0005637
1246.9	0.0005062
1245.9	0.0005128
1245.0	0.0005857
1244.0	0.0007225
1243.0	0.0009266
1242.1	0.0012125
1241.1	0.0015955
1240.1	0.0020819
1239.2	0.0026618
1238.2	0.0033039
1237.2	0.0039503
1236.3	0.0045263
1235.3	0.0049601
1234.3	0.0051947
1233.4	0.0052200
1232.4	0.0051296
1231.5	0.0050619
1230.5	0.0050460
1229.5	0.0050411
1228.6	0.0050728
1227.6	0.0051698
1226.6	0.0052799
1225.7	0.0053193
1224.7	0.0052331
1223.7	0.0050185
1222.8	0.0047118
1221.8	0.0043604
1220.8	0.0040143
1219.9	0.0037093
1218.9	0.0034441
1218.0	0.0031983
1217.0	0.0029567
1216.0	0.0026999
1215.1	0.0024131
1214.1	0.0021346
1213.1	0.0019470
1212.2	0.0018525
1211.2	0.0017570
1210.2	0.0016404
1209.3	0.0015623
1208.3	0.0015249
1207.3	0.0014802
1206.4	0.0013928
1205.4	0.0012457
1204.5	0.0010475
1203.5	0.0008209
1202.5	0.0005802
1201.6	0.0003389
1200.6	0.0001219
1199.6	-0.0000531
1198.7	-0.0001919
1197.7	-0.0003140
1196.7	-0.0004218
1195.8	-0.0004985
1194.8	-0.0005438
1193.8	-0.0005713
1192.9	-0.0005896
1191.9	-0.0006007
1191.0	-0.0005893
1190.0	-0.0005453
1189.0	-0.0004776
1188.1	-0.0004046
1187.1	-0.0003514
1186.1	-0.0003373
1185.2	-0.0003576
1184.2	-0.0003989
1183.2	-0.0004610
1182.3	-0.0005227
1181.3	-0.0005057
1180.3	-0.0003778
1179.4	-0.0002301
1178.4	-0.0001482
1177.5	-0.0001354
1176.5	-0.0001676
1175.5	-0.0002211
1174.6	-0.0002712
1173.6	-0.0003147
1172.6	-0.0003777
1171.7	-0.0004641
1170.7	-0.0005475
1169.7	-0.0006167
1168.8	-0.0006769
1167.8	-0.0007316
1166.8	-0.0007847
1165.9	-0.0008278
1164.9	-0.0008521
1164.0	-0.0008706
1163.0	-0.0008882
1162.0	-0.0009016
1161.1	-0.0009208
1160.1	-0.0009367
1159.1	-0.0009303
1158.2	-0.0009196
1157.2	-0.0009251
1156.2	-0.0009391
1155.3	-0.0009614
1154.3	-0.0010041
1153.3	-0.0010540
1152.4	-0.0010819
1151.4	-0.0010849
1150.5	-0.0010860
1149.5	-0.0011004
1148.5	-0.0011240
1147.6	-0.0011475
1146.6	-0.0011668
1145.6	-0.0011905
1144.7	-0.0012316
1143.7	-0.0012792
1142.7	-0.0012947
1141.8	-0.0012643
1140.8	-0.0012221
1139.8	-0.0011930
1138.9	-0.0011777
1137.9	-0.0011799
1136.9	-0.0011981
1136.0	-0.0012201
1135.0	-0.0012387
1134.1	-0.0012498
1133.1	-0.0012381
1132.1	-0.0012076
1131.2	-0.0011906
1130.2	-0.0011901
1129.2	-0.0011764
1128.3	-0.0011348
1127.3	-0.0010714
1126.3	-0.0009936
1125.4	-0.0009020
1124.4	-0.0007971
1123.4	-0.0006754
1122.5	-0.0005278
1121.5	-0.0003618
1120.6	-0.0002104
1119.6	-0.0000901
1118.6	0.0000096
1117.7	0.0000828
1116.7	0.0001147
1115.7	0.0001275
1114.8	0.0001614
1113.8	0.0002116
1112.8	0.0002309
1111.9	0.0002209
1110.9	0.0002281
1109.9	0.0002437
1109.0	0.0002218
1108.0	0.0001512
1107.1	0.0000435
1106.1	-0.0000900
1105.1	-0.0002328
1104.2	-0.0003828
1103.2	-0.0005447
1102.2	-0.0006945
1101.3	-0.0008223
1100.3	-0.0009392
1099.3	-0.0010296
1098.4	-0.0010888
1097.4	-0.0011471
1096.4	-0.0012092
1095.5	-0.0012526
1094.5	-0.0012787
1093.6	-0.0013005
1092.6	-0.0013120
1091.6	-0.0013105
1090.7	-0.0013052
1089.7	-0.0012970
1088.7	-0.0012932
1087.8	-0.0013075
1086.8	-0.0013310
1085.8	-0.0013498
1084.9	-0.0013648
1083.9	-0.0013692
1082.9	-0.0013624
1082.0	-0.0013645
1081.0	-0.0013714
1080.1	-0.0013562
1079.1	-0.0013287
1078.1	-0.0013256
1077.2	-0.0013513
1076.2	-0.0013723
1075.2	-0.0013592
1074.3	-0.0013292
1073.3	-0.0013159
1072.3	-0.0013114
1071.4	-0.0012987
1070.4	-0.0012838
1069.4	-0.0012675
1068.5	-0.0012438
1067.5	-0.0012180
1066.6	-0.0011962
1065.6	-0.0011665
1064.6	-0.0011191
1063.7	-0.0010532
1062.7	-0.0009582
1061.7	-0.0008219
1060.8	-0.0006581
1059.8	-0.0004879
1058.8	-0.0003124
1057.9	-0.0001371
1056.9	0.0000188
1055.9	0.0001478
1055.0	0.0002535
1054.0	0.0003494
1053.1	0.0004444
1052.1	0.0005262
1051.1	0.0005860
1050.2	0.0006371
1049.2	0.0006984
1048.2	0.0007746
1047.3	0.0008502
1046.3	0.0008961
1045.3	0.0009040
1044.4	0.0008993
1043.4	0.0009008
1042.4	0.0008943
1041.5	0.0008572
1040.5	0.0008012
1039.6	0.0007627
1038.6	0.0007463
1037.6	0.0007306
1036.7	0.0007045
1035.7	0.0006650
1034.7	0.0006091
1033.8	0.0005353
1032.8	0.0004479
1031.8	0.0003578
1030.9	0.0002883
1029.9	0.0002617
1028.9	0.0002669
1028.0	0.0002731
1027.0	0.0002578
1026.1	0.0002137
1025.1	0.0001545
1024.1	0.0000822
1023.2	-0.0000132
1022.2	-0.0001074
1021.2	-0.0001850
1020.3	-0.0002762
1019.3	-0.0003796
1018.3	-0.0004533
1017.4	-0.0004905
1016.4	-0.0005143
1015.4	-0.0005507
1014.5	-0.0006136
1013.5	-0.0006876
1012.6	-0.0007511
1011.6	-0.0008117
1010.6	-0.0008756
1009.7	-0.0008955
1008.7	-0.0008611
1007.7	-0.0008533
1006.8	-0.0009065
1005.8	-0.0009734
1004.8	-0.0009995
1003.9	-0.0009711
1002.9	-0.0009470
1001.9	-0.0009481
1001.0	-0.0009125
1000.0	-0.0008682
999.1	-0.0008778
998.1	-0.0008861
997.1	-0.0008598
996.2	-0.0008526
995.2	-0.0008968
994.2	-0.0009550
993.3	-0.0009743
992.3	-0.0009786
991.3	-0.0010092
990.4	-0.0010427
989.4	-0.0010259
988.4	-0.0009290
987.5	-0.0008281
986.5	-0.0007624
985.5	-0.0006812
984.6	-0.0006934
983.6	-0.0008444
982.7	-0.0008939
981.7	-0.0007808
980.7	-0.0007337
979.8	-0.0008372
978.8	-0.0009392
977.8	-0.0009225
976.9	-0.0008531
975.9	-0.0007854
974.9	-0.0007177
974.0	-0.0007244
973.0	-0.0007989
972.0	-0.0008475
971.1	-0.0008595
970.1	-0.0008459
969.2	-0.0008043
968.2	-0.0007329
967.2	-0.0006671
966.3	-0.0007030
965.3	-0.0008271
964.3	-0.0009024
963.4	-0.0008843
962.4	-0.0008347
961.4	-0.0008275
960.5	-0.0009014
959.5	-0.0009642
958.5	-0.0009021
957.6	-0.0007761
956.6	-0.0006891
955.7	-0.0006203
954.7	-0.0005467
953.7	-0.0005957
952.8	-0.0008484
951.8	-0.0010924
950.8	-0.0011087
949.9	-0.0009983
948.9	-0.0009278
947.9	-0.0008850
947.0	-0.0008206
946.0	-0.0007285
945.0	-0.0005761
944.1	-0.0003684
943.1	-0.0002933
942.2	-0.0004713
941.2	-0.0006128
940.2	-0.0005193
939.3	-0.0004620
938.3	-0.0005999
937.3	-0.0008097
936.4	-0.0009467
935.4	-0.0008800
934.4	-0.0006788
933.5	-0.0006109
932.5	-0.0007359
931.5	-0.0007810
930.6	-0.0005145
929.6	-0.0000165
928.7	0.0003437
927.7	0.0001515
926.7	-0.0003527
925.8	-0.0004525
924.8	-0.0003112
923.8	-0.0005542
922.9	-0.0007218
921.9	-0.0002937
920.9	0.0000578
920.0	-0.0002227
919.0	-0.0007932
918.0	-0.0010852
917.1	-0.0008356
916.1	-0.0003980
915.2	-0.0002907
914.2	-0.0004920
913.2	-0.0006903
912.3	-0.0005899
911.3	-0.0000388
910.3	0.0004983
909.4	0.0004623
908.4	0.0001228
907.4	-0.0001290
906.5	-0.0002602
905.5	-0.0001069
904.5	0.0002497
903.6	0.0006626
902.6	0.0010693
901.7	0.0008866
900.7	0.0001237
899.7	-0.0003327
898.8	-0.0005813
897.8	-0.0011280
896.8	-0.0014383
895.9	-0.0011844
894.9	-0.0011181
893.9	-0.0016391
893.0	-0.0024243
892.0	-0.0026981
891.0	-0.0017032
890.1	-0.0004807
889.1	-0.0003331
888.2	-0.0005421
887.2	-0.0007924
886.2	-0.0015775
885.3	-0.0019703
884.3	-0.0011752
883.3	-0.0001159
882.4	0.0005345
881.4	0.0012176
880.4	0.0017980
879.5	0.0014076
878.5	0.0001973
877.5	-0.0008888
876.6	-0.0011206
875.6	-0.0003051
874.7	0.0003729
873.7	-0.0002947
872.7	-0.0014066
871.8	-0.0018561
870.8	-0.0017526
869.8	0.0003497
868.9	0.0055942
867.9	0.0088787
866.9	0.0054420
866.0	-0.0003938
865.0	-0.0012326
864.0	0.0020138
863.1	0.0012908
862.1	-0.0050320
861.2	-0.0081997
860.2	-0.0049344
859.2	-0.0036099
858.3	-0.0031968
857.3	0.0054512
856.3	0.0175170
855.4	0.0262285
854.4	0.0332410
853.4	0.0387532
852.5	0.0405453
851.5	0.0290183
850.5	0.0073121
849.6	0.0065427
848.6	0.0250795
847.6	0.0319386
846.7	0.0240032
845.7	0.0156943
844.8	0.0275052
843.8	0.0399561
842.8	0.0105163
841.9	0.0073239
840.9	0.0774372
839.9	0.1409364
839.0	0.1433921
838.0	0.0956339
837.0	-0.0060840
836.1	-0.0718469
835.1	0.0109546
834.1	0.1433973
833.2	0.1971128
832.2	0.1986783
831.3	0.2582456
830.3	0.4977814
829.3	0.7418347
828.4	0.6302189
827.4	0.5916805
826.4	0.7596983
825.5	1.3767352
824.5	6.0000000
823.5	0.8386578
822.6	0.3657328
821.6	0.3804615
820.6	0.4559209
819.7	0.4203885
818.7	0.4576826
817.8	0.5355341
816.8	0.5306816
815.8	0.4574580
814.9	0.4232259
813.9	0.2795215
812.9	0.1296449
812.0	0.1332348
811.0	0.1215795
810.0	0.1024873
809.1	0.2000336
808.1	0.3364165
807.1	0.5280426
806.2	0.7089756
805.2	0.5972654
804.3	0.5532697
803.3	0.7823269
802.3	0.8804383
801.4	0.5135362
800.4	0.3086179
799.4	0.3789557
798.5	0.5539830
797.5	0.4709464
796.5	0.3090080
795.6	0.2330711
794.6	0.1272018
793.6	-0.0322528
792.7	-0.1151273
791.7	-0.0561013
790.8	0.0899909
789.8	0.1531538
788.8	0.1116403
787.9	0.0758256
786.9	0.1983749
785.9	0.7417087
785.0	0.9842778
784.0	0.4944083
783.0	0.3640650
782.1	0.4148268
781.1	0.5864639
780.1	0.7357476
779.2	0.5957628
778.2	0.2530573
777.3	0.0674424
776.3	0.6090780
775.3	0.5178810
774.4	0.2097388
773.4	-0.0927868
772.4	-0.1761053
771.5	0.0185826
770.5	0.4324134
769.5	6.0000000
768.6	-0.0000355
767.6	0.1162729
766.6	0.0121781
765.7	0.0595591
764.7	0.0748637
763.8	0.0053600
762.8	0.6046857
761.8	6.0000000
760.9	0.5779217
759.9	-0.1202200
758.9	-0.2011361
758.0	0.3183571
757.0	0.5465600
756.0	0.3961345
755.1	0.3590232
754.1	0.7072226
753.1	1.0021250
752.2	1.4467127
751.2	1.6307837
750.3	0.7245656
749.3	0.5176491
748.3	0.4228064
747.4	0.2380870
746.4	0.0462470
745.4	-0.0124188
744.5	0.0105097
743.5	0.0837693
742.5	0.1219921
741.6	0.0726261
740.6	0.0336070
739.6	0.1736239
738.7	0.3730465
737.7	0.3534769
736.8	0.2990371
735.8	0.4657828
734.8	0.6323878
733.9	0.6002764
732.9	0.5311354
731.9	0.4809646
731.0	0.3217956
730.0	0.0799583
729.0	-0.1035669
728.1	-0.0134322
727.1	0.1582258
726.1	0.2435876
725.2	0.2593757
724.2	0.2594015
723.3	0.2136075
722.3	0.1372873
721.3	0.1824439
720.4	0.3160337
719.4	0.3084409
718.4	0.2525917
717.5	0.3096111
716.5	0.3784236
715.5	0.3189200
714.6	0.2457539
713.6	0.2725707
712.6	0.3894563
711.7	0.4318031
710.7	0.3630995
709.7	0.2766923
708.8	0.2494911
707.8	0.4167204
706.9	0.5760144
705.9	0.3104322
704.9	0.2062288
704.0	0.4051919
703.0	0.4917839
702.0	0.2438513
701.1	0.1068646
700.1	0.2584500
699.1	0.5135128
698.2	0.9429259
697.2	1.5657732
696.2	0.6948999
695.3	0.1125909
694.3	-0.1512904
693.4	-0.0314598
692.4	0.3052738
691.4	0.5211158
690.5	0.5464972
689.5	0.4120710
688.5	0.2941970
687.6	0.2464701
686.6	0.2033215
685.6	0.2094977
684.7	0.2532920
683.7	0.2981248
682.7	0.3400961
681.8	0.3484037
680.8	0.2843121
679.9	0.1979723
678.9	0.2307389
677.9	0.3770054
677.0	0.5492082
676.0	0.4688136
675.0	0.2494401
674.1	0.2169051
673.1	0.3222903
672.1	0.3553292
671.2	0.1796245
670.2	0.0380031
669.2	0.0962188
668.3	0.1758299
667.3	0.2053665
666.4	0.3767810
665.4	0.6627198
664.4	0.6248540
663.5	0.4161932
662.5	0.5108728
661.5	0.4919309
660.6	0.1741081
659.6	0.7383425
