3997.9	-0.0000613
3996.0	-0.0000533
3994.1	-0.0000418
3992.1	-0.0000298
3990.2	-0.0000129
3988.3	0.0000018
3986.3	0.0000046
3984.4	0.0000020
3982.5	0.0000037
3980.6	0.0000145
3978.6	0.0000289
3976.7	0.0000300
3974.8	0.0000227
3972.8	0.0000268
3970.9	0.0000382
3969.0	0.0000376
3967.1	0.0000225
3965.1	0.0000134
3963.2	0.0000162
3961.3	0.0000197
3959.3	0.0000220
3957.4	0.0000186
3955.5	0.0000093
3953.6	0.0000097
3951.6	0.0000268
3949.7	0.0000452
3947.8	0.0000480
3945.8	0.0000462
3943.9	0.0000507
3942.0	0.0000406
3940.1	0.0000215
3938.1	0.0000193
3936.2	0.0000291
3934.3	0.0000450
3932.3	0.0000609
3930.4	0.0000567
3928.5	0.0000387
3926.6	0.0000313
3924.6	0.0000447
3922.7	0.0000769
3920.8	0.0001099
3918.8	0.0001185
3916.9	0.0001030
3915.0	0.0000856
3913.1	0.0000740
3911.1	0.0000640
3909.2	0.0000698
3907.3	0.0001104
3905.3	0.0001682
3903.4	0.0001983
3901.5	0.0001864
3899.6	0.0001489
3897.6	0.0001024
3895.7	0.0000731
3893.8	0.0000809
3891.8	0.0001021
3889.9	0.0001141
3888.0	0.0001338
3886.1	0.0001440
3884.1	0.0001175
3882.2	0.0001038
3880.3	0.0001170
3878.3	0.0001186
3876.4	0.0001222
3874.5	0.0001456
3872.6	0.0002022
3870.6	0.0002693
3868.7	0.0002748
3866.8	0.0002435
3864.8	0.0002301
3862.9	0.0002074
3861.0	0.0001656
3859.1	0.0001514
3857.1	0.0002588
3855.2	0.0004864
3853.3	0.0005904
3851.3	0.0004216
3849.4	0.0001897
3847.5	0.0000937
3845.6	0.0001026
3843.6	0.0001339
3841.7	0.0001751
3839.8	0.0002415
3837.8	0.0002881
3835.9	0.0002578
3834.0	0.0001892
3832.1	0.0001368
3830.1	0.0001003
3828.2	0.0000815
3826.3	0.0000817
3824.3	0.0001103
3822.4	0.0001703
3820.5	0.0001962
3818.6	0.0001848
3816.6	0.0001838
3814.7	0.0001435
3812.8	0.0000722
3810.8	0.0000695
3808.9	0.0001431
3807.0	0.0001945
3805.1	0.0001947
3803.1	0.0002217
3801.2	0.0002376
3799.3	0.0001744
3797.3	0.0001134
3795.4	0.0000858
3793.5	0.0000488
3791.6	0.0000196
3789.6	0.0000172
3787.7	0.0000287
3785.8	0.0000399
3783.8	0.0000421
3781.9	0.0000456
3780.0	0.0000550
3778.1	0.0000485
3776.1	0.0000229
3774.2	0.0000090
3772.3	0.0000297
3770.3	0.0000613
3768.4	0.0000676
3766.5	0.0000605
3764.6	0.0000529
3762.6	0.0000493
3760.7	0.0000658
3758.8	0.0000759
3756.8	0.0000714
3754.9	0.0001133
3753.0	0.0002340
3751.1	0.0003546
3749.1	0.0003717
3747.2	0.0003720
3745.3	0.0004292
3743.3	0.0003707
3741.4	0.0001882
3739.5	0.0001001
3737.6	0.0001335
3735.6	0.0001658
3733.7	0.0001425
3731.8	0.0000820
3729.8	0.0000319
3727.9	0.0000276
3726.0	0.0000445
3724.1	0.0000393
3722.1	0.0000185
3720.2	0.0000005
3718.3	-0.0000101
3716.3	0.0000051
3714.4	0.0000766
3712.5	0.0001518
3710.6	0.0001252
3708.6	0.0000279
3706.7	-0.0000379
3704.8	-0.0000411
3702.8	-0.0000141
3700.9	-0.0000133
3699.0	-0.0000418
3697.1	-0.0000604
3695.1	-0.0000499
3693.2	-0.0000008
3691.3	0.0000824
3689.3	0.0001401
3687.4	0.0001038
3685.5	0.0000075
3683.6	-0.0000547
3681.6	-0.0000543
3679.7	-0.0000007
3677.8	0.0001157
3675.8	0.0002175
3673.9	0.0002081
3672.0	0.0001613
3670.1	0.0001242
3668.1	0.0000413
3666.2	-0.0000496
3664.3	-0.0000864
3662.3	-0.0000828
3660.4	-0.0000582
3658.5	-0.0000092
3656.6	0.0000261
3654.6	0.0000239
3652.7	0.0000654
3650.8	0.0001663
3648.8	0.0001957
3646.9	0.0001014
3645.0	-0.0000088
3643.1	-0.0000556
3641.1	-0.0000653
3639.2	-0.0000760
3637.3	-0.0000908
3635.3	-0.0000962
3633.4	-0.0000687
3631.5	0.0000232
3629.6	0.0001156
3627.6	0.0000827
3625.7	-0.0000297
3623.8	-0.0000816
3621.8	-0.0000470
3619.9	0.0000110
3618.0	0.0000235
3616.1	0.0000019
3614.1	0.0000052
3612.2	0.0000324
3610.3	0.0000473
3608.3	0.0000295
3606.4	-0.0000187
3604.5	-0.0000627
3602.6	-0.0000764
3600.6	-0.0000724
3598.7	-0.0000699
3596.8	-0.0000717
3594.8	-0.0000673
3592.9	-0.0000559
3591.0	-0.0000342
3589.1	0.0000040
3587.1	0.0000178
3585.2	-0.0000225
3583.3	-0.0000703
3581.3	-0.0000800
3579.4	-0.0000623
3577.5	-0.0000438
3575.6	-0.0000308
3573.6	-0.0000213
3571.7	-0.0000076
3569.8	0.0000226
3567.8	0.0000489
3565.9	0.0000357
3564.0	0.0000055
3562.1	0.0000018
3560.1	0.0000141
3558.2	0.0000185
3556.3	0.0000182
3554.3	0.0000255
3552.4	0.0000365
3550.5	0.0000476
3548.6	0.0000717
3546.6	0.0000991
3544.7	0.0001073
3542.8	0.0001005
3540.8	0.0000969
3538.9	0.0001055
3537.0	0.0001226
3535.1	0.0001424
3533.1	0.0001616
3531.2	0.0001821
3529.3	0.0002057
3527.3	0.0002229
3525.4	0.0002300
3523.5	0.0002396
3521.6	0.0002508
3519.6	0.0002557
3517.7	0.0002649
3515.8	0.0002853
3513.8	0.0003147
3511.9	0.0003510
3510.0	0.0003832
3508.1	0.0004046
3506.1	0.0004220
3504.2	0.0004459
3502.3	0.0004711
3500.3	0.0004875
3498.4	0.0004980
3496.5	0.0005056
3494.6	0.0005130
3492.6	0.0005273
3490.7	0.0005491
3488.8	0.0005700
3486.8	0.0005891
3484.9	0.0006108
3483.0	0.0006284
3481.1	0.0006363
3479.1	0.0006455
3477.2	0.0006625
3475.3	0.0006748
3473.3	0.0006793
3471.4	0.0006930
3469.5	0.0007164
3467.6	0.0007358
3465.6	0.0007455
3463.7	0.0007504
3461.8	0.0007646
3459.8	0.0007940
3457.9	0.0008285
3456.0	0.0008579
3454.1	0.0008846
3452.1	0.0009154
3450.2	0.0009487
3448.3	0.0009779
3446.3	0.0010006
3444.4	0.0010199
3442.5	0.0010413
3440.6	0.0010683
3438.6	0.0010948
3436.7	0.0011124
3434.8	0.0011226
3432.8	0.0011435
3430.9	0.0011885
3429.0	0.0012352
3427.1	0.0012596
3425.1	0.0012675
3423.2	0.0012714
3421.3	0.0012815
3419.3	0.0013042
3417.4	0.0013320
3415.5	0.0013493
3413.6	0.0013517
3411.6	0.0013498
3409.7	0.0013526
3407.8	0.0013656
3405.8	0.0013888
3403.9	0.0014104
3402.0	0.0014213
3400.1	0.0014261
3398.1	0.0014340
3396.2	0.0014495
3394.3	0.0014597
3392.3	0.0014468
3390.4	0.0014229
3388.5	0.0014074
3386.6	0.0013950
3384.6	0.0013845
3382.7	0.0013832
3380.8	0.0013868
3378.8	0.0013863
3376.9	0.0013777
3375.0	0.0013686
3373.1	0.0013637
3371.1	0.0013547
3369.2	0.0013411
3367.3	0.0013275
3365.3	0.0013073
3363.4	0.0012806
3361.5	0.0012584
3359.6	0.0012418
3357.6	0.0012240
3355.7	0.0012052
3353.8	0.0011921
3351.8	0.0011858
3349.9	0.0011788
3348.0	0.0011648
3346.1	0.0011408
3344.1	0.0011106
3342.2	0.0010840
3340.3	0.0010643
3338.3	0.0010463
3336.4	0.0010261
3334.5	0.0010091
3332.6	0.0009970
3330.6	0.0009714
3328.7	0.0009294
3326.8	0.0008971
3324.8	0.0008823
3322.9	0.0008734
3321.0	0.0008641
3319.1	0.0008498
3317.1	0.0008329
3315.2	0.0008164
3313.3	0.0007923
3311.3	0.0007644
3309.4	0.0007486
3307.5	0.0007372
3305.6	0.0007136
3303.6	0.0006917
3301.7	0.0006863
3299.8	0.0006867
3297.8	0.0006818
3295.9	0.0006682
3294.0	0.0006479
3292.1	0.0006273
3290.1	0.0006026
3288.2	0.0005740
3286.3	0.0005520
3284.3	0.0005399
3282.4	0.0005324
3280.5	0.0005228
3278.6	0.0005076
3276.6	0.0004940
3274.7	0.0004930
3272.8	0.0004938
3270.8	0.0004794
3268.9	0.0004612
3267.0	0.0004492
3265.1	0.0004349
3263.1	0.0004166
3261.2	0.0003995
3259.3	0.0003859
3257.3	0.0003782
3255.4	0.0003728
3253.5	0.0003624
3251.6	0.0003469
3249.6	0.0003306
3247.7	0.0003214
3245.8	0.0003251
3243.8	0.0003292
3241.9	0.0003257
3240.0	0.0003196
3238.1	0.0003088
3236.1	0.0002928
3234.2	0.0002763
3232.3	0.0002645
3230.3	0.0002594
3228.4	0.0002567
3226.5	0.0002514
3224.6	0.0002412
3222.6	0.0002296
3220.7	0.0002234
3218.8	0.0002218
3216.8	0.0002197
3214.9	0.0002116
3213.0	0.0001947
3211.1	0.0001794
3209.1	0.0001790
3207.2	0.0001888
3205.3	0.0001916
3203.3	0.0001772
3201.4	0.0001505
3199.5	0.0001326
3197.6	0.0001374
3195.6	0.0001474
3193.7	0.0001438
3191.8	0.0001354
3189.8	0.0001295
3187.9	0.0001220
3186.0	0.0001111
3184.1	0.0000992
3182.1	0.0000887
3180.2	0.0000784
3178.3	0.0000696
3176.3	0.0000678
3174.4	0.0000715
3172.5	0.0000735
3170.6	0.0000687
3168.6	0.0000616
3166.7	0.0000609
3164.8	0.0000594
3162.8	0.0000509
3160.9	0.0000487
3159.0	0.0000525
3157.1	0.0000504
3155.1	0.0000488
3153.2	0.0000471
3151.3	0.0000368
3149.3	0.0000287
3147.4	0.0000318
3145.5	0.0000348
3143.6	0.0000302
3141.6	0.0000231
3139.7	0.0000175
3137.8	0.0000146
3135.8	0.0000164
3133.9	0.0000206
3132.0	0.0000188
3130.1	0.0000109
3128.1	0.0000038
3126.2	-0.0000025
3124.3	-0.0000058
3122.3	-0.0000016
3120.4	0.0000042
3118.5	0.0000067
3116.6	0.0000093
3114.6	0.0000123
3112.7	0.0000079
3110.8	-0.0000059
3108.8	-0.0000208
3106.9	-0.0000286
3105.0	-0.0000256
3103.1	-0.0000155
3101.1	-0.0000037
3099.2	0.0000047
3097.3	0.0000067
3095.3	0.0000115
3093.4	0.0000269
3091.5	0.0000415
3089.6	0.0000439
3087.6	0.0000412
3085.7	0.0000466
3083.8	0.0000615
3081.8	0.0000839
3079.9	0.0001129
3078.0	0.0001348
3076.1	0.0001426
3074.1	0.0001452
3072.2	0.0001433
3070.3	0.0001358
3068.3	0.0001324
3066.4	0.0001401
3064.5	0.0001512
3062.6	0.0001559
3060.6	0.0001536
3058.7	0.0001501
3056.8	0.0001511
3054.8	0.0001544
3052.9	0.0001481
3051.0	0.0001268
3049.1	0.0000998
3047.1	0.0000759
3045.2	0.0000554
3043.3	0.0000432
3041.3	0.0000411
3039.4	0.0000403
3037.5	0.0000379
3035.6	0.0000381
3033.6	0.0000396
3031.7	0.0000426
3029.8	0.0000484
3027.8	0.0000528
3025.9	0.0000527
3024.0	0.0000561
3022.1	0.0000666
3020.1	0.0000703
3018.2	0.0000675
3016.3	0.0000751
3014.3	0.0000914
3012.4	0.0001000
3010.5	0.0000969
3008.6	0.0000913
3006.6	0.0000900
3004.7	0.0000903
3002.8	0.0000857
3000.8	0.0000715
2998.9	0.0000511
2997.0	0.0000376
2995.1	0.0000326
2993.1	0.0000274
2991.2	0.0000273
2989.3	0.0000364
2987.3	0.0000454
2985.4	0.0000549
2983.5	0.0000742
2981.6	0.0001002
2979.6	0.0001235
2977.7	0.0001465
2975.8	0.0001761
2973.8	0.0002063
2971.9	0.0002334
2970.0	0.0002573
2968.1	0.0002707
2966.1	0.0002739
2964.2	0.0002815
2962.3	0.0002998
2960.3	0.0003204
2958.4	0.0003355
2956.5	0.0003451
2954.6	0.0003504
2952.6	0.0003439
2950.7	0.0003184
2948.8	0.0002853
2946.8	0.0002625
2944.9	0.0002513
2943.0	0.0002489
2941.1	0.0002610
2939.1	0.0002797
2937.2	0.0002910
2935.3	0.0003019
2933.3	0.0003122
2931.4	0.0003056
2929.5	0.0002808
2927.6	0.0002492
2925.6	0.0002197
2923.7	0.0001988
2921.8	0.0001885
2919.8	0.0001855
2917.9	0.0001855
2916.0	0.0001904
2914.1	0.0002042
2912.1	0.0002185
2910.2	0.0002227
2908.3	0.0002178
2906.3	0.0002074
2904.4	0.0001912
2902.5	0.0001736
2900.6	0.0001616
2898.6	0.0001499
2896.7	0.0001312
2894.8	0.0001117
2892.8	0.0000992
2890.9	0.0000934
2889.0	0.0000888
2887.1	0.0000777
2885.1	0.0000547
2883.2	0.0000267
2881.3	0.0000108
2879.3	0.0000093
2877.4	0.0000090
2875.5	0.0000089
2873.6	0.0000155
2871.6	0.0000247
2869.7	0.0000303
2867.8	0.0000315
2865.8	0.0000315
2863.9	0.0000381
2862.0	0.0000502
2860.1	0.0000613
2858.1	0.0000726
2856.2	0.0000851
2854.3	0.0001042
2852.3	0.0001415
2850.4	0.0001976
2848.5	0.0002684
2846.6	0.0003507
2844.6	0.0004301
2842.7	0.0004806
2840.8	0.0004761
2838.8	0.0004121
2836.9	0.0003184
2835.0	0.0002327
2833.1	0.0001703
2831.1	0.0001278
2829.2	0.0000965
2827.3	0.0000714
2825.3	0.0000550
2823.4	0.0000487
2821.5	0.0000466
2819.6	0.0000440
2817.6	0.0000428
2815.7	0.0000447
2813.8	0.0000484
2811.8	0.0000520
2809.9	0.0000516
2808.0	0.0000476
2806.1	0.0000471
2804.1	0.0000502
2802.2	0.0000520
2800.3	0.0000509
2798.3	0.0000451
2796.4	0.0000403
2794.5	0.0000421
2792.6	0.0000457
2790.6	0.0000464
2788.7	0.0000453
2786.8	0.0000464
2784.8	0.0000543
2782.9	0.0000643
2781.0	0.0000637
2779.1	0.0000518
2777.1	0.0000432
2775.2	0.0000464
2773.3	0.0000528
2771.3	0.0000548
2769.4	0.0000580
2767.5	0.0000647
2765.6	0.0000716
2763.6	0.0000803
2761.7	0.0000876
2759.8	0.0000851
2757.8	0.0000747
2755.9	0.0000671
2754.0	0.0000693
2752.1	0.0000755
2750.1	0.0000768
2748.2	0.0000765
2746.3	0.0000834
2744.3	0.0000910
2742.4	0.0000863
2740.5	0.0000732
2738.6	0.0000642
2736.6	0.0000632
2734.7	0.0000688
2732.8	0.0000749
2730.8	0.0000781
2728.9	0.0000805
2727.0	0.0000827
2725.1	0.0000830
2723.1	0.0000822
2721.2	0.0000830
2719.3	0.0000837
2717.3	0.0000857
2715.4	0.0000894
2713.5	0.0000879
2711.6	0.0000819
2709.6	0.0000786
2707.7	0.0000826
2705.8	0.0000910
2703.8	0.0000912
2701.9	0.0000844
2700.0	0.0000832
2698.1	0.0000864
2696.1	0.0000847
2694.2	0.0000794
2692.3	0.0000730
2690.3	0.0000661
2688.4	0.0000639
2686.5	0.0000680
2684.6	0.0000711
2682.6	0.0000710
2680.7	0.0000721
2678.8	0.0000732
2676.8	0.0000713
2674.9	0.0000729
2673.0	0.0000804
2671.1	0.0000797
2669.1	0.0000672
2667.2	0.0000600
2665.3	0.0000650
2663.3	0.0000718
2661.4	0.0000754
2659.5	0.0000766
2657.6	0.0000777
2655.6	0.0000806
2653.7	0.0000829
2651.8	0.0000871
2649.8	0.0000954
2647.9	0.0001011
2646.0	0.0001014
2644.1	0.0001007
2642.1	0.0001024
2640.2	0.0001051
2638.3	0.0001056
2636.3	0.0001036
2634.4	0.0001011
2632.5	0.0001001
2630.6	0.0001020
2628.6	0.0001060
2626.7	0.0001097
2624.8	0.0001102
2622.8	0.0001073
2620.9	0.0001030
2619.0	0.0000972
2617.1	0.0000945
2615.1	0.0001003
2613.2	0.0001057
2611.3	0.0001034
2609.3	0.0001016
2607.4	0.0001039
2605.5	0.0001064
2603.6	0.0001067
2601.6	0.0001024
2599.7	0.0000932
2597.8	0.0000860
2595.8	0.0000847
2593.9	0.0000859
2592.0	0.0000886
2590.1	0.0000952
2588.1	0.0001030
2586.2	0.0001051
2584.3	0.0001006
2582.3	0.0000959
2580.4	0.0000950
2578.5	0.0000989
2576.6	0.0001044
2574.6	0.0001086
2572.7	0.0001137
2570.8	0.0001226
2568.8	0.0001365
2566.9	0.0001478
2565.0	0.0001433
2563.1	0.0001283
2561.1	0.0001190
2559.2	0.0001176
2557.3	0.0001179
2555.3	0.0001156
2553.4	0.0001129
2551.5	0.0001118
2549.6	0.0001133
2547.6	0.0001187
2545.7	0.0001207
2543.8	0.0001166
2541.8	0.0001156
2539.9	0.0001193
2538.0	0.0001244
2536.1	0.0001312
2534.1	0.0001386
2532.2	0.0001452
2530.3	0.0001500
2528.3	0.0001514
2526.4	0.0001471
2524.5	0.0001363
2522.6	0.0001240
2520.6	0.0001162
2518.7	0.0001135
2516.8	0.0001113
2514.8	0.0001045
2512.9	0.0000987
2511.0	0.0000993
2509.1	0.0000988
2507.1	0.0000979
2505.2	0.0001008
2503.3	0.0001001
2501.3	0.0000966
2499.4	0.0000973
2497.5	0.0000966
2495.6	0.0000938
2493.6	0.0000949
2491.7	0.0000988
2489.8	0.0001035
2487.8	0.0001057
2485.9	0.0001022
2484.0	0.0000973
2482.1	0.0000959
2480.1	0.0000932
2478.2	0.0000873
2476.3	0.0000860
2474.3	0.0000906
2472.4	0.0000920
2470.5	0.0000906
2468.6	0.0000928
2466.6	0.0000939
2464.7	0.0000884
2462.8	0.0000813
2460.8	0.0000791
2458.9	0.0000839
2457.0	0.0000932
2455.1	0.0000997
2453.1	0.0000980
2451.2	0.0000913
2449.3	0.0000872
2447.3	0.0000856
2445.4	0.0000817
2443.5	0.0000789
2441.6	0.0000820
2439.6	0.0000861
2437.7	0.0000866
2435.8	0.0000893
2433.8	0.0001001
2431.9	0.0001111
2430.0	0.0001096
2428.1	0.0000995
2426.1	0.0000943
2424.2	0.0000908
2422.3	0.0000817
2420.3	0.0000738
2418.4	0.0000714
2416.5	0.0000690
2414.6	0.0000674
2412.6	0.0000711
2410.7	0.0000781
2408.8	0.0000785
2406.8	0.0000664
2404.9	0.0000529
2403.0	0.0000513
2401.1	0.0000570
2399.1	0.0000652
2397.2	0.0000737
2395.3	0.0000747
2393.3	0.0000679
2391.4	0.0000609
2389.5	0.0000590
2387.6	0.0000661
2385.6	0.0000775
2383.7	0.0000783
2381.8	0.0000670
2379.8	0.0000589
2377.9	0.0000660
2376.0	0.0000849
2374.1	0.0001004
2372.1	0.0001039
2370.2	0.0000968
2368.3	0.0000850
2366.3	0.0000783
2364.4	0.0000812
2362.5	0.0000839
2360.6	0.0000809
2358.6	0.0000784
2356.7	0.0000762
2354.8	0.0000701
2352.8	0.0000621
2350.9	0.0000534
2349.0	0.0000444
2347.1	0.0000413
2345.1	0.0000477
2343.2	0.0000569
2341.3	0.0000655
2339.3	0.0000801
2337.4	0.0000934
2335.5	0.0000904
2333.6	0.0000756
2331.6	0.0000651
2329.7	0.0000662
2327.8	0.0000706
2325.8	0.0000637
2323.9	0.0000488
2322.0	0.0000418
2320.1	0.0000478
2318.1	0.0000600
2316.2	0.0000658
2314.3	0.0000621
2312.3	0.0000569
2310.4	0.0000561
2308.5	0.0000612
2306.6	0.0000672
2304.6	0.0000665
2302.7	0.0000598
2300.8	0.0000508
2298.8	0.0000445
2296.9	0.0000495
2295.0	0.0000597
2293.1	0.0000591
2291.1	0.0000534
2289.2	0.0000564
2287.3	0.0000613
2285.3	0.0000587
2283.4	0.0000506
2281.5	0.0000422
2279.6	0.0000392
2277.6	0.0000429
2275.7	0.0000496
2273.8	0.0000554
2271.8	0.0000558
2269.9	0.0000552
2268.0	0.0000621
2266.1	0.0000714
2264.1	0.0000747
2262.2	0.0000734
2260.3	0.0000667
2258.3	0.0000550
2256.4	0.0000456
2254.5	0.0000408
2252.6	0.0000390
2250.6	0.0000423
2248.7	0.0000487
2246.8	0.0000473
2244.8	0.0000360
2242.9	0.0000273
2241.0	0.0000244
2239.1	0.0000194
2237.1	0.0000155
2235.2	0.0000189
2233.3	0.0000250
2231.3	0.0000272
2229.4	0.0000248
2227.5	0.0000219
2225.6	0.0000219
2223.6	0.0000230
2221.7	0.0000227
2219.8	0.0000194
2217.8	0.0000177
2215.9	0.0000260
2214.0	0.0000380
2212.1	0.0000413
2210.1	0.0000382
2208.2	0.0000347
2206.3	0.0000282
2204.3	0.0000189
2202.4	0.0000171
2200.5	0.0000281
2198.6	0.0000394
2196.6	0.0000370
2194.7	0.0000255
2192.8	0.0000231
2190.8	0.0000322
2188.9	0.0000347
2187.0	0.0000271
2185.1	0.0000237
2183.1	0.0000244
2181.2	0.0000194
2179.3	0.0000138
2177.3	0.0000159
2175.4	0.0000184
2173.5	0.0000192
2171.6	0.0000227
2169.6	0.0000237
2167.7	0.0000180
2165.8	0.0000119
2163.8	0.0000107
2161.9	0.0000106
2160.0	0.0000111
2158.1	0.0000166
2156.1	0.0000225
2154.2	0.0000240
2152.3	0.0000276
2150.3	0.0000304
2148.4	0.0000238
2146.5	0.0000200
2144.6	0.0000296
2142.6	0.0000395
2140.7	0.0000370
2138.8	0.0000269
2136.8	0.0000207
2134.9	0.0000233
2133.0	0.0000285
2131.1	0.0000294
2129.1	0.0000269
2127.2	0.0000259
2125.3	0.0000268
2123.3	0.0000250
2121.4	0.0000192
2119.5	0.0000164
2117.6	0.0000188
2115.6	0.0000197
2113.7	0.0000186
2111.8	0.0000199
2109.8	0.0000229
2107.9	0.0000243
2106.0	0.0000268
2104.1	0.0000342
2102.1	0.0000388
2100.2	0.0000315
2098.3	0.0000179
2096.3	0.0000074
2094.4	0.0000015
2092.5	-0.0000035
2090.6	-0.0000116
2088.6	-0.0000301
2086.7	-0.0000630
2084.8	-0.0001004
2082.8	-0.0001264
2080.9	-0.0001360
2079.0	-0.0001316
2077.1	-0.0001184
2075.1	-0.0001066
2073.2	-0.0001058
2071.3	-0.0001106
2069.3	-0.0001110
2067.4	-0.0001100
2065.5	-0.0001144
2063.6	-0.0001224
2061.6	-0.0001279
2059.7	-0.0001298
2057.8	-0.0001284
2055.8	-0.0001214
2053.9	-0.0001154
2052.0	-0.0001177
2050.1	-0.0001202
2048.1	-0.0001112
2046.2	-0.0000907
2044.3	-0.0000681
2042.3	-0.0000537
2040.4	-0.0000437
2038.5	-0.0000260
2036.6	-0.0000062
2034.6	0.0000020
2032.7	0.0000042
2030.8	0.0000155
2028.8	0.0000352
2026.9	0.0000515
2025.0	0.0000609
2023.1	0.0000665
2021.1	0.0000687
2019.2	0.0000693
2017.3	0.0000684
2015.3	0.0000648
2013.4	0.0000617
2011.5	0.0000613
2009.6	0.0000583
2007.6	0.0000502
2005.7	0.0000438
2003.8	0.0000482
2001.8	0.0000599
1999.9	0.0000652
1998.0	0.0000612
1996.1	0.0000591
1994.1	0.0000634
1992.2	0.0000643
1990.3	0.0000553
1988.3	0.0000452
1986.4	0.0000416
1984.5	0.0000404
1982.6	0.0000370
1980.6	0.0000325
1978.7	0.0000314
1976.8	0.0000301
1974.8	0.0000203
1972.9	0.0000084
1971.0	0.0000072
1969.1	0.0000116
1967.1	0.0000074
1965.2	0.0000003
1963.3	0.0000006
1961.4	0.0000002
1959.4	-0.0000024
1957.5	0.0000021
1955.6	0.0000048
1953.6	-0.0000004
1951.7	-0.0000010
1949.8	0.0000050
1947.9	0.0000116
1945.9	0.0000215
1944.0	0.0000317
1942.1	0.0000333
1940.1	0.0000297
1938.2	0.0000285
1936.3	0.0000248
1934.4	0.0000190
1932.4	0.0000210
1930.5	0.0000248
1928.6	0.0000204
1926.6	0.0000201
1924.7	0.0000321
1922.8	0.0000403
1920.9	0.0000434
1918.9	0.0000508
1917.0	0.0000474
1915.1	0.0000327
1913.1	0.0000265
1911.2	0.0000222
1909.3	0.0000108
1907.4	0.0000014
1905.4	-0.0000047
1903.5	-0.0000101
1901.6	-0.0000105
1899.6	-0.0000055
1897.7	-0.0000026
1895.8	-0.0000054
1893.9	-0.0000057
1891.9	0.0000088
1890.0	0.0000276
1888.1	0.0000283
1886.1	0.0000148
1884.2	0.0000015
1882.3	-0.0000039
1880.4	0.0000039
1878.4	0.0000136
1876.5	0.0000092
1874.6	-0.0000023
1872.6	0.0000080
1870.7	0.0000458
1868.8	0.0000686
1866.9	0.0000479
1864.9	0.0000135
1863.0	-0.0000082
1861.1	-0.0000229
1859.1	-0.0000339
1857.2	-0.0000408
1855.3	-0.0000459
1853.4	-0.0000498
1851.4	-0.0000505
1849.5	-0.0000404
1847.6	-0.0000028
1845.6	0.0000565
1843.7	0.0000723
1841.8	0.0000234
1839.9	-0.0000166
1837.9	-0.0000158
1836.0	-0.0000104
1834.1	-0.0000067
1832.1	0.0000187
1830.2	0.0000477
1828.3	0.0000503
1826.4	0.0000448
1824.4	0.0000398
1822.5	0.0000240
1820.6	0.0000112
1818.6	0.0000120
1816.7	0.0000179
1814.8	0.0000249
1812.9	0.0000403
1810.9	0.0000556
1809.0	0.0000542
1807.1	0.0000428
1805.1	0.0000400
1803.2	0.0000569
1801.3	0.0000802
1799.4	0.0000799
1797.4	0.0000640
1795.5	0.0000757
1793.6	0.0001114
1791.6	0.0001096
1789.7	0.0000626
1787.8	0.0000362
1785.9	0.0000487
1783.9	0.0000588
1782.0	0.0000572
1780.1	0.0000569
1778.1	0.0000577
1776.2	0.0000886
1774.3	0.0001728
1772.4	0.0002315
1770.4	0.0001988
1768.5	0.0001379
1766.6	0.0001027
1764.6	0.0000987
1762.7	0.0001183
1760.8	0.0001176
1758.9	0.0000948
1756.9	0.0000765
1755.0	0.0000743
1753.1	0.0001093
1751.1	0.0001411
1749.2	0.0001113
1747.3	0.0000585
1745.4	0.0000340
1743.4	0.0000369
1741.5	0.0000550
1739.6	0.0000648
1737.6	0.0001015
1735.7	0.0002210
1733.8	0.0002954
1731.9	0.0002163
1729.9	0.0001160
1728.0	0.0000873
1726.1	0.0000952
1724.1	0.0001186
1722.2	0.0001711
1720.3	0.0002993
1718.4	0.0004632
1716.4	0.0005088
1714.5	0.0004194
1712.6	0.0003269
1710.6	0.0002870
1708.7	0.0002892
1706.8	0.0003177
1704.9	0.0003518
1702.9	0.0004337
1701.0	0.0005389
1699.1	0.0005478
1697.1	0.0004854
1695.2	0.0003934
1693.3	0.0002575
1691.4	0.0001627
1689.4	0.0001551
1687.5	0.0002468
1685.6	0.0003929
1683.6	0.0003931
1681.7	0.0002294
1679.8	0.0001105
1677.9	0.0001234
1675.9	0.0001800
1674.0	0.0001843
1672.1	0.0001688
1670.1	0.0001767
1668.2	0.0001556
1666.3	0.0001148
1664.4	0.0001147
1662.4	0.0001199
1660.5	0.0000923
1658.6	0.0000843
1656.6	0.0002087
1654.7	0.0004781
1652.8	0.0006038
1650.9	0.0004339
1648.9	0.0002825
1647.0	0.0002815
1645.1	0.0002332
1643.1	0.0001211
1641.2	0.0000735
1639.3	0.0001245
1637.4	0.0002364
1635.4	0.0002872
1633.5	0.0002093
1631.6	0.0001303
1629.6	0.0001451
1627.7	0.0002155
1625.8	0.0003324
1623.9	0.0005147
1621.9	0.0007262
1620.0	0.0009484
1618.1	0.0011433
1616.1	0.0011658
1614.2	0.0010111
1612.3	0.0008669
1610.4	0.0008051
1608.4	0.0007828
1606.5	0.0008146
1604.6	0.0009675
1602.6	0.0012596
1600.7	0.0015921
1598.8	0.0017827
1596.9	0.0016947
1594.9	0.0013640
1593.0	0.0009713
1591.1	0.0006722
1589.1	0.0004913
1587.2	0.0003790
1585.3	0.0002957
1583.4	0.0002299
1581.4	0.0001896
1579.5	0.0002270
1577.6	0.0003430
1575.6	0.0003685
1573.7	0.0002488
1571.8	0.0001736
1569.9	0.0001795
1567.9	0.0001494
1566.0	0.0001000
1564.1	0.0001137
1562.1	0.0002601
1560.2	0.0004899
1558.3	0.0005618
1556.4	0.0004212
1554.4	0.0002633
1552.5	0.0001644
1550.6	0.0001082
1548.6	0.0001014
1546.7	0.0001522
1544.8	0.0002718
1542.9	0.0004539
1540.9	0.0006175
1539.0	0.0006229
1537.1	0.0005226
1535.1	0.0005300
1533.2	0.0006499
1531.3	0.0007784
1529.4	0.0009354
1527.4	0.0011312
1525.5	0.0013481
1523.6	0.0016349
1521.6	0.0019757
1519.7	0.0022776
1517.8	0.0025634
1515.9	0.0030125
1513.9	0.0040981
1512.0	0.0062777
1510.1	0.0087487
1508.1	0.0096527
1506.2	0.0082961
1504.3	0.0058338
1502.4	0.0036029
1500.4	0.0020745
1498.5	0.0011871
1496.6	0.0007049
1494.6	0.0004033
1492.7	0.0002231
1490.8	0.0001539
1488.9	0.0001143
1486.9	0.0000645
1485.0	0.0000390
1483.1	0.0000630
1481.1	0.0001440
1479.2	0.0003244
1477.3	0.0006663
1475.4	0.0011548
1473.4	0.0016287
1471.5	0.0018518
1469.6	0.0017692
1467.6	0.0015644
1465.7	0.0013811
1463.8	0.0012351
1461.9	0.0011760
1459.9	0.0012820
1458.0	0.0014427
1456.1	0.0014173
1454.1	0.0012162
1452.2	0.0010555
1450.3	0.0010208
1448.4	0.0010853
1446.4	0.0012025
1444.5	0.0012913
1442.6	0.0012615
1440.6	0.0010996
1438.7	0.0008877
1436.8	0.0006526
1434.9	0.0003916
1432.9	0.0002022
1431.0	0.0001328
1429.1	0.0001022
1427.1	0.0000574
1425.2	0.0000311
1423.3	0.0000719
1421.4	0.0001887
1419.4	0.0002914
1417.5	0.0002811
1415.6	0.0002093
1413.6	0.0001695
1411.7	0.0001687
1409.8	0.0001808
1407.9	0.0002001
1405.9	0.0002271
1404.0	0.0002463
1402.1	0.0002667
1400.1	0.0003062
1398.2	0.0003498
1396.3	0.0003861
1394.4	0.0003958
1392.4	0.0003704
1390.5	0.0003617
1388.6	0.0003967
1386.6	0.0004414
1384.7	0.0004851
1382.8	0.0005444
1380.9	0.0006132
1378.9	0.0006795
1377.0	0.0007523
1375.1	0.0008281
1373.1	0.0008779
1371.2	0.0009000
1369.3	0.0009131
1367.4	0.0009188
1365.4	0.0009235
1363.5	0.0009260
1361.6	0.0009036
1359.6	0.0008518
1357.7	0.0007839
1355.8	0.0006984
1353.9	0.0005957
1351.9	0.0004903
1350.0	0.0003922
1348.1	0.0003088
1346.1	0.0002520
1344.2	0.0002198
1342.3	0.0001984
1340.4	0.0001762
1338.4	0.0001423
1336.5	0.0000997
1334.6	0.0000630
1332.6	0.0000327
1330.7	0.0000068
1328.8	-0.0000069
1326.9	-0.0000061
1324.9	0.0000033
1323.0	0.0000198
1321.1	0.0000506
1319.1	0.0000969
1317.2	0.0001599
1315.3	0.0002516
1313.4	0.0003857
1311.4	0.0005652
1309.5	0.0007628
1307.6	0.0009128
1305.6	0.0009491
1303.7	0.0008542
1301.8	0.0006799
1299.9	0.0005148
1297.9	0.0004134
1296.0	0.0003729
1294.1	0.0003755
1292.1	0.0004082
1290.2	0.0004538
1288.3	0.0005058
1286.4	0.0005816
1284.4	0.0007041
1282.5	0.0008959
1280.6	0.0011968
1278.6	0.0016996
1276.7	0.0026021
1274.8	0.0041498
1272.9	0.0062672
1270.9	0.0081978
1269.0	0.0089766
1267.1	0.0083998
1265.1	0.0070755
1263.2	0.0056403
1261.3	0.0043581
1259.4	0.0032640
1257.4	0.0023753
1255.5	0.0017501
1253.6	0.0014206
1251.6	0.0013452
1249.7	0.0014243
1247.8	0.0015537
1245.9	0.0016723
1243.9	0.0017661
1242.0	0.0018501
1240.1	0.0019404
1238.1	0.0020326
1236.2	0.0021160
1234.3	0.0021821
1232.4	0.0022139
1230.4	0.0022067
1228.5	0.0021763
1226.6	0.0021303
1224.6	0.0020697
1222.7	0.0019973
1220.8	0.0019178
1218.9	0.0018385
1216.9	0.0017586
1215.0	0.0016705
1213.1	0.0015744
1211.1	0.0014784
1209.2	0.0013847
1207.3	0.0012856
1205.4	0.0011797
1203.4	0.0010710
1201.5	0.0009609
1199.6	0.0008555
1197.6	0.0007576
1195.7	0.0006595
1193.8	0.0005583
1191.9	0.0004649
1189.9	0.0003956
1188.0	0.0003565
1186.1	0.0003473
1184.1	0.0003777
1182.2	0.0004550
1180.3	0.0005481
1178.4	0.0005936
1176.4	0.0005762
1174.5	0.0005429
1172.6	0.0005076
1170.6	0.0004407
1168.7	0.0003439
1166.8	0.0002499
1164.9	0.0001812
1162.9	0.0001502
1161.0	0.0001610
1159.1	0.0001969
1157.1	0.0002297
1155.2	0.0002357
1153.3	0.0001976
1151.4	0.0001271
1149.4	0.0000570
1147.5	-0.0000000
1145.6	-0.0000467
1143.6	-0.0000772
1141.7	-0.0000886
1139.8	-0.0000887
1137.9	-0.0000866
1135.9	-0.0000846
1134.0	-0.0000766
1132.1	-0.0000639
1130.1	-0.0000489
1128.2	-0.0000208
1126.3	0.0000213
1124.4	0.0000653
1122.4	0.0001229
1120.5	0.0002535
1118.6	0.0005524
1116.6	0.0010767
1114.7	0.0017159
1112.8	0.0021736
1110.9	0.0021815
1108.9	0.0017421
1107.0	0.0011176
1105.1	0.0005906
1103.1	0.0002678
1101.2	0.0001109
1099.3	0.0000483
1097.4	0.0000220
1095.4	0.0000071
1093.5	0.0000003
1091.6	-0.0000089
1089.6	-0.0000177
1087.7	-0.0000114
1085.8	0.0000004
1083.9	0.0000036
1081.9	0.0000004
1080.0	-0.0000041
1078.1	-0.0000010
1076.1	0.0000112
1074.2	0.0000210
1072.3	0.0000204
1070.4	0.0000135
1068.4	0.0000063
1066.5	0.0000025
1064.6	0.0000090
1062.6	0.0000234
1060.7	0.0000367
1058.8	0.0000545
1056.9	0.0000904
1054.9	0.0001558
1053.0	0.0002815
1051.1	0.0005154
1049.1	0.0008857
1047.2	0.0013535
1045.3	0.0017652
1043.4	0.0019199
1041.4	0.0017474
1039.5	0.0013693
1037.6	0.0009937
1035.6	0.0008043
1033.7	0.0009010
1031.8	0.0012494
1029.9	0.0016659
1027.9	0.0019251
1026.0	0.0019147
1024.1	0.0016794
1022.1	0.0013449
1020.2	0.0010229
1018.3	0.0007715
1016.4	0.0005974
1014.4	0.0004785
1012.5	0.0003912
1010.6	0.0003183
1008.6	0.0002546
1006.7	0.0002029
1004.8	0.0001624
1002.9	0.0001341
1000.9	0.0001204
999.0	0.0001158
997.1	0.0001083
995.1	0.0000947
993.2	0.0000808
991.3	0.0000628
989.4	0.0000446
987.4	0.0000445
985.5	0.0000588
983.6	0.0000626
981.6	0.0000524
979.7	0.0000484
977.8	0.0000595
975.9	0.0000740
973.9	0.0000831
972.0	0.0000859
970.1	0.0000881
968.1	0.0000954
966.2	0.0000985
964.3	0.0000903
962.4	0.0000868
960.4	0.0000901
958.5	0.0000815
956.6	0.0000676
954.6	0.0000619
952.7	0.0000566
950.8	0.0000445
948.9	0.0000223
946.9	-0.0000089
945.0	-0.0000310
943.1	-0.0000293
941.1	-0.0000147
939.2	-0.0000038
937.3	0.0000032
935.4	0.0000062
933.4	-0.0000030
931.5	-0.0000143
929.6	-0.0000050
927.6	0.0000293
925.7	0.0000720
923.8	0.0001070
921.9	0.0001278
919.9	0.0001270
918.0	0.0001045
916.1	0.0000755
914.1	0.0000427
912.2	-0.0000072
910.3	-0.0000681
908.4	-0.0001087
906.4	-0.0001174
904.5	-0.0001131
902.6	-0.0001090
900.6	-0.0001100
898.7	-0.0001188
896.8	-0.0001201
894.9	-0.0001078
892.9	-0.0000982
891.0	-0.0000897
889.1	-0.0000793
887.1	-0.0000789
885.2	-0.0000767
883.3	-0.0000622
881.4	-0.0000550
879.4	-0.0000640
877.5	-0.0000663
875.6	-0.0000458
873.6	-0.0000277
871.7	-0.0000314
869.8	-0.0000353
867.9	-0.0000395
865.9	-0.0000484
864.0	-0.0000259
862.1	0.0000165
860.1	0.0000263
858.2	0.0000074
856.3	-0.0000155
854.4	-0.0000281
852.4	-0.0000032
850.5	0.0000485
848.6	0.0000966
846.6	0.0001479
844.7	0.0001993
842.8	0.0002501
840.9	0.0003330
838.9	0.0004448
837.0	0.0005161
835.1	0.0004698
833.1	0.0003060
831.2	0.0001197
829.3	-0.0000033
827.4	-0.0000506
825.4	-0.0000530
823.5	-0.0000544
821.6	-0.0000699
819.6	-0.0000864
817.7	-0.0000934
815.8	-0.0000832
813.9	-0.0000774
811.9	-0.0000938
810.0	-0.0001116
808.1	-0.0001220
806.1	-0.0001274
804.2	-0.0001208
802.3	-0.0001052
800.4	-0.0000843
798.4	-0.0000524
796.5	-0.0000206
794.6	-0.0000001
792.6	0.0000282
790.7	0.0000606
788.8	0.0000587
786.9	0.0000389
784.9	0.0000449
783.0	0.0000713
781.1	0.0001219
779.1	0.0001985
777.2	0.0002787
775.3	0.0003798
773.4	0.0005313
771.4	0.0007473
769.5	0.0010713
767.6	0.0015852
765.6	0.0022911
763.7	0.0030365
761.8	0.0035923
759.9	0.0037401
757.9	0.0034426
756.0	0.0029520
754.1	0.0025567
752.1	0.0023435
750.2	0.0022708
748.3	0.0022464
746.4	0.0021493
744.4	0.0019290
742.5	0.0015912
740.6	0.0011567
738.6	0.0007451
736.7	0.0004827
734.8	0.0003367
732.9	0.0002724
730.9	0.0003188
729.0	0.0003595
727.1	0.0002967
725.1	0.0002076
723.2	0.0001797
721.3	0.0002363
719.4	0.0003413
717.4	0.0004576
715.5	0.0005617
713.6	0.0005135
711.6	0.0003022
709.7	0.0001449
707.8	0.0000360
705.9	-0.0001042
703.9	-0.0001664
702.0	-0.0001594
700.1	-0.0002529
698.1	-0.0004684
696.2	-0.0005574
694.3	-0.0003786
692.4	-0.0000847
690.4	0.0001395
688.5	0.0002108
686.6	0.0001491
684.6	0.0000382
682.7	-0.0000336
680.8	-0.0000698
678.9	-0.0000909
676.9	0.0000073
675.0	0.0003164
673.1	0.0006942
671.1	0.0008499
669.2	0.0007373
667.3	0.0005845
665.4	0.0004056
663.4	0.0002798
661.5	0.0005139
659.6	0.0007778
657.6	0.0006268
655.7	0.0003291
653.8	0.0001332
651.9	0.0000389
649.9	0.0000756
