3997.9	-0.0000495
3996.0	-0.0000723
3994.1	-0.0000846
3992.1	-0.0000731
3990.2	-0.0000550
3988.3	-0.0000428
3986.3	-0.0000280
3984.4	-0.0000115
3982.5	-0.0000019
3980.6	-0.0000074
3978.6	-0.0000270
3976.7	-0.0000458
3974.8	-0.0000520
3972.8	-0.0000446
3970.9	-0.0000307
3969.0	-0.0000210
3967.1	-0.0000184
3965.1	-0.0000096
3963.2	0.0000153
3961.3	0.0000391
3959.3	0.0000433
3957.4	0.0000348
3955.5	0.0000222
3953.6	0.0000095
3951.6	0.0000114
3949.7	0.0000356
3947.8	0.0000588
3945.8	0.0000584
3943.9	0.0000454
3942.0	0.0000249
3940.1	0.0000113
3938.1	0.0000143
3936.2	0.0000189
3934.3	0.0000282
3932.3	0.0000313
3930.4	0.0000240
3928.5	0.0000295
3926.6	0.0000451
3924.6	0.0000550
3922.7	0.0000560
3920.8	0.0000654
3918.8	0.0000688
3916.9	0.0000472
3915.0	0.0000180
3913.1	0.0000323
3911.1	0.0000555
3909.2	0.0000486
3907.3	0.0000328
3905.3	0.0000282
3903.4	0.0000138
3901.5	0.0000125
3899.6	0.0000405
3897.6	0.0000428
3895.7	0.0000269
3893.8	0.0000185
3891.8	0.0000133
3889.9	-0.0000165
3888.0	0.0000042
3886.1	0.0000650
3884.1	0.0000326
3882.2	0.0000110
3880.3	0.0000190
3878.3	-0.0000177
3876.4	-0.0000204
3874.5	0.0000007
3872.6	-0.0000015
3870.6	0.0000131
3868.7	-0.0000289
3866.8	-0.0000311
3864.8	0.0000240
3862.9	0.0000149
3861.0	0.0000001
3859.1	-0.0000172
3857.1	-0.0000210
3855.2	0.0000566
3853.3	0.0000592
3851.3	-0.0000574
3849.4	-0.0000812
3847.5	-0.0000351
3845.6	0.0000086
3843.6	0.0000335
3841.7	0.0000194
3839.8	0.0000254
3837.8	0.0000298
3835.9	-0.0000244
3834.0	-0.0000291
3832.1	-0.0000085
3830.1	-0.0000321
3828.2	-0.0000376
3826.3	-0.0000199
3824.3	-0.0000110
3822.4	0.0000396
3820.5	0.0000280
3818.6	-0.0000092
3816.6	0.0000418
3814.7	0.0000049
3812.8	-0.0000306
3810.8	0.0000063
3808.9	0.0000378
3807.0	0.0000337
3805.1	-0.0000488
3803.1	-0.0000236
3801.2	0.0000332
3799.3	-0.0000241
3797.3	-0.0000183
3795.4	0.0000010
3793.5	-0.0000131
3791.6	-0.0000166
3789.6	-0.0000070
3787.7	0.0000136
3785.8	0.0000275
3783.8	0.0000202
3781.9	0.0000191
3780.0	0.0000354
3778.1	0.0000248
3776.1	0.0000177
3774.2	0.0000257
3772.3	0.0000373
3770.3	0.0000564
3768.4	0.0000362
3766.5	0.0000190
3764.6	0.0000030
3762.6	-0.0000208
3760.7	-0.0000162
3758.8	-0.0000142
3756.8	-0.0000247
3754.9	-0.0000291
3753.0	0.0000156
3751.1	0.0000142
3749.1	-0.0000614
3747.2	-0.0001033
3745.3	0.0000262
3743.3	0.0000130
3741.4	-0.0000794
3739.5	-0.0000552
3737.6	-0.0000101
3735.6	-0.0000003
3733.7	-0.0000092
3731.8	-0.0000099
3729.8	-0.0000439
3727.9	-0.0000237
3726.0	-0.0000084
3724.1	-0.0000418
3722.1	-0.0000505
3720.2	-0.0000412
3718.3	-0.0000291
3716.3	-0.0000258
3714.4	-0.0000044
3712.5	0.0000276
3710.6	-0.0000034
3708.6	-0.0000370
3706.7	-0.0000301
3704.8	-0.0000072
3702.8	0.0000090
3700.9	0.0000012
3699.0	-0.0000049
3697.1	0.0000166
3695.1	0.0000241
3693.2	0.0000227
3691.3	0.0000273
3689.3	0.0000541
3687.4	0.0000262
3685.5	-0.0000221
3683.6	0.0000080
3681.6	0.0000433
3679.7	0.0000575
3677.8	0.0000815
3675.8	0.0001004
3673.9	0.0000042
3672.0	-0.0000040
3670.1	0.0000435
3668.1	-0.0000014
3666.2	-0.0000058
3664.3	0.0000241
3662.3	0.0000235
3660.4	0.0000086
3658.5	0.0000300
3656.6	0.0000665
3654.6	0.0000209
3652.7	-0.0000212
3650.8	-0.0000014
3648.8	-0.0000111
3646.9	-0.0000450
3645.0	-0.0000457
3643.1	-0.0000049
3641.1	0.0000367
3639.2	0.0000540
3637.3	0.0000494
3635.3	0.0000355
3633.4	0.0000147
3631.5	0.0000254
3629.6	0.0000670
3627.6	0.0000009
3625.7	-0.0000478
3623.8	0.0000033
3621.8	0.0000399
3619.9	0.0000483
3618.0	0.0000364
3616.1	0.0000509
3614.1	0.0000932
3612.2	0.0000925
3610.3	0.0000724
3608.3	0.0000502
3606.4	0.0000021
3604.5	-0.0000188
3602.6	0.0000062
3600.6	0.0000434
3598.7	0.0000533
3596.8	0.0000458
3594.8	0.0000461
3592.9	0.0000398
3591.0	0.0000159
3589.1	0.0000114
3587.1	0.0000205
3585.2	0.0000265
3583.3	0.0000389
3581.3	0.0000387
3579.4	0.0000173
3577.5	-0.0000006
3575.6	0.0000019
3573.6	0.0000201
3571.7	0.0000372
3569.8	0.0000480
3567.8	0.0000553
3565.9	0.0000430
3564.0	0.0000240
3562.1	0.0000129
3560.1	0.0000142
3558.2	0.0000352
3556.3	0.0000574
3554.3	0.0000564
3552.4	0.0000320
3550.5	0.0000013
3548.6	-0.0000082
3546.6	-0.0000006
3544.7	0.0000051
3542.8	0.0000027
3540.8	-0.0000099
3538.9	-0.0000208
3537.0	-0.0000131
3535.1	0.0000119
3533.1	0.0000344
3531.2	0.0000367
3529.3	0.0000284
3527.3	0.0000211
3525.4	0.0000098
3523.5	0.0000015
3521.6	0.0000058
3519.6	0.0000140
3517.7	0.0000053
3515.8	-0.0000098
3513.8	-0.0000077
3511.9	0.0000049
3510.0	0.0000087
3508.1	0.0000061
3506.1	0.0000300
3504.2	0.0000614
3502.3	0.0000394
3500.3	-0.0000173
3498.4	-0.0000411
3496.5	-0.0000141
3494.6	0.0000183
3492.6	0.0000155
3490.7	-0.0000073
3488.8	-0.0000226
3486.8	-0.0000299
3484.9	-0.0000335
3483.0	-0.0000309
3481.1	-0.0000267
3479.1	-0.0000206
3477.2	-0.0000047
3475.3	0.0000146
3473.3	0.0000233
3471.4	0.0000268
3469.5	0.0000319
3467.6	0.0000200
3465.6	-0.0000172
3463.7	-0.0000529
3461.8	-0.0000657
3459.8	-0.0000546
3457.9	-0.0000346
3456.0	-0.0000319
3454.1	-0.0000427
3452.1	-0.0000376
3450.2	-0.0000196
3448.3	0.0000019
3446.3	0.0000289
3444.4	0.0000423
3442.5	0.0000230
3440.6	-0.0000063
3438.6	-0.0000084
3436.7	0.0000018
3434.8	-0.0000015
3432.8	-0.0000123
3430.9	-0.0000273
3429.0	-0.0000408
3427.1	-0.0000413
3425.1	-0.0000409
3423.2	-0.0000472
3421.3	-0.0000431
3419.3	-0.0000287
3417.4	-0.0000232
3415.5	-0.0000311
3413.6	-0.0000476
3411.6	-0.0000725
3409.7	-0.0000935
3407.8	-0.0000882
3405.8	-0.0000573
3403.9	-0.0000329
3402.0	-0.0000437
3400.1	-0.0000747
3398.1	-0.0000752
3396.2	-0.0000412
3394.3	-0.0000273
3392.3	-0.0000573
3390.4	-0.0000685
3388.5	-0.0000227
3386.6	0.0000206
3384.6	0.0000252
3382.7	0.0000163
3380.8	0.0000090
3378.8	0.0000022
3376.9	-0.0000066
3375.0	-0.0000179
3373.1	-0.0000238
3371.1	-0.0000178
3369.2	0.0000019
3367.3	0.0000228
3365.3	0.0000301
3363.4	0.0000336
3361.5	0.0000436
3359.6	0.0000398
3357.6	0.0000180
3355.7	0.0000155
3353.8	0.0000331
3351.8	0.0000359
3349.9	0.0000324
3348.0	0.0000411
3346.1	0.0000375
3344.1	0.0000097
3342.2	-0.0000108
3340.3	-0.0000107
3338.3	-0.0000107
3336.4	-0.0000116
3334.5	0.0000036
3332.6	0.0000218
3330.6	0.0000179
3328.7	-0.0000020
3326.8	-0.0000138
3324.8	-0.0000088
3322.9	0.0000062
3321.0	0.0000174
3319.1	0.0000102
3317.1	-0.0000082
3315.2	-0.0000148
3313.3	-0.0000094
3311.3	0.0000022
3309.4	0.0000175
3307.5	0.0000130
3305.6	-0.0000120
3303.6	-0.0000249
3301.7	-0.0000130
3299.8	0.0000034
3297.8	0.0000095
3295.9	0.0000177
3294.0	0.0000401
3292.1	0.0000613
3290.1	0.0000578
3288.2	0.0000311
3286.3	0.0000066
3284.3	0.0000027
3282.4	0.0000174
3280.5	0.0000372
3278.6	0.0000487
3276.6	0.0000418
3274.7	0.0000184
3272.8	0.0000007
3270.8	0.0000033
3268.9	0.0000171
3267.0	0.0000326
3265.1	0.0000406
3263.1	0.0000358
3261.2	0.0000308
3259.3	0.0000417
3257.3	0.0000651
3255.4	0.0000763
3253.5	0.0000690
3251.6	0.0000545
3249.6	0.0000387
3247.7	0.0000340
3245.8	0.0000478
3243.8	0.0000698
3241.9	0.0000807
3240.0	0.0000687
3238.1	0.0000478
3236.1	0.0000354
3234.2	0.0000322
3232.3	0.0000361
3230.3	0.0000465
3228.4	0.0000600
3226.5	0.0000737
3224.6	0.0000797
3222.6	0.0000750
3220.7	0.0000769
3218.8	0.0000892
3216.8	0.0000947
3214.9	0.0000870
3213.0	0.0000712
3211.1	0.0000535
3209.1	0.0000279
3207.2	0.0000025
3205.3	0.0000066
3203.3	0.0000375
3201.4	0.0000614
3199.5	0.0000584
3197.6	0.0000436
3195.6	0.0000480
3193.7	0.0000706
3191.8	0.0000855
3189.8	0.0000850
3187.9	0.0000734
3186.0	0.0000559
3184.1	0.0000461
3182.1	0.0000501
3180.2	0.0000506
3178.3	0.0000352
3176.3	0.0000150
3174.4	0.0000103
3172.5	0.0000256
3170.6	0.0000382
3168.6	0.0000317
3166.7	0.0000266
3164.8	0.0000374
3162.8	0.0000441
3160.9	0.0000358
3159.0	0.0000266
3157.1	0.0000322
3155.1	0.0000447
3153.2	0.0000438
3151.3	0.0000331
3149.3	0.0000266
3147.4	0.0000207
3145.5	0.0000079
3143.6	-0.0000036
3141.6	0.0000014
3139.7	0.0000177
3137.8	0.0000249
3135.8	0.0000201
3133.9	0.0000159
3132.0	0.0000128
3130.1	0.0000051
3128.1	-0.0000045
3126.2	-0.0000152
3124.3	-0.0000251
3122.3	-0.0000265
3120.4	-0.0000207
3118.5	-0.0000090
3116.6	0.0000041
3114.6	0.0000097
3112.7	0.0000092
3110.8	0.0000075
3108.8	0.0000082
3106.9	0.0000200
3105.0	0.0000355
3103.1	0.0000310
3101.1	0.0000079
3099.2	-0.0000104
3097.3	-0.0000136
3095.3	-0.0000082
3093.4	-0.0000029
3091.5	-0.0000048
3089.6	-0.0000160
3087.6	-0.0000261
3085.7	-0.0000274
3083.8	-0.0000199
3081.8	-0.0000091
3079.9	-0.0000058
3078.0	-0.0000033
3076.1	0.0000119
3074.1	0.0000241
3072.2	0.0000182
3070.3	0.0000105
3068.3	0.0000082
3066.4	0.0000024
3064.5	-0.0000001
3062.6	0.0000087
3060.6	0.0000156
3058.7	0.0000139
3056.8	0.0000084
3054.8	-0.0000035
3052.9	-0.0000170
3051.0	-0.0000177
3049.1	-0.0000093
3047.1	-0.0000057
3045.2	-0.0000066
3043.3	-0.0000063
3041.3	-0.0000029
3039.4	0.0000010
3037.5	-0.0000008
3035.6	-0.0000116
3033.6	-0.0000249
3031.7	-0.0000337
3029.8	-0.0000370
3027.8	-0.0000347
3025.9	-0.0000286
3024.0	-0.0000177
3022.1	0.0000062
3020.1	0.0000338
3018.2	0.0000382
3016.3	0.0000143
3014.3	-0.0000140
3012.4	-0.0000281
3010.5	-0.0000312
3008.6	-0.0000327
3006.6	-0.0000396
3004.7	-0.0000555
3002.8	-0.0000699
3000.8	-0.0000653
2998.9	-0.0000426
2997.0	-0.0000226
2995.1	-0.0000081
2993.1	-0.0000032
2991.2	-0.0000016
2989.3	-0.0000044
2987.3	-0.0000156
2985.4	-0.0000224
2983.5	-0.0000151
2981.6	-0.0000043
2979.6	-0.0000007
2977.7	0.0000021
2975.8	0.0000080
2973.8	0.0000165
2971.9	0.0000412
2970.0	0.0000810
2968.1	0.0001076
2966.1	0.0001097
2964.2	0.0000975
2962.3	0.0000801
2960.3	0.0000703
2958.4	0.0000716
2956.5	0.0000789
2954.6	0.0000892
2952.6	0.0000865
2950.7	0.0000746
2948.8	0.0000788
2946.8	0.0000893
2944.9	0.0000915
2943.0	0.0000937
2941.1	0.0000896
2939.1	0.0000722
2937.2	0.0000556
2935.3	0.0000563
2933.3	0.0000775
2931.4	0.0001025
2929.5	0.0001226
2927.6	0.0001380
2925.6	0.0001367
2923.7	0.0001248
2921.8	0.0001196
2919.8	0.0001111
2917.9	0.0000929
2916.0	0.0000808
2914.1	0.0000775
2912.1	0.0000722
2910.2	0.0000720
2908.3	0.0000820
2906.3	0.0000876
2904.4	0.0000824
2902.5	0.0000763
2900.6	0.0000724
2898.6	0.0000642
2896.7	0.0000547
2894.8	0.0000526
2892.8	0.0000545
2890.9	0.0000507
2889.0	0.0000454
2887.1	0.0000504
2885.1	0.0000534
2883.2	0.0000455
2881.3	0.0000417
2879.3	0.0000472
2877.4	0.0000530
2875.5	0.0000554
2873.6	0.0000584
2871.6	0.0000665
2869.7	0.0000772
2867.8	0.0000848
2865.8	0.0000931
2863.9	0.0001106
2862.0	0.0001312
2860.1	0.0001356
2858.1	0.0001206
2856.2	0.0001055
2854.3	0.0000980
2852.3	0.0000858
2850.4	0.0000719
2848.5	0.0000658
2846.6	0.0000565
2844.6	0.0000416
2842.7	0.0000369
2840.8	0.0000399
2838.8	0.0000335
2836.9	0.0000243
2835.0	0.0000256
2833.1	0.0000258
2831.1	0.0000187
2829.2	0.0000164
2827.3	0.0000189
2825.3	0.0000238
2823.4	0.0000379
2821.5	0.0000492
2819.6	0.0000455
2817.6	0.0000402
2815.7	0.0000398
2813.8	0.0000352
2811.8	0.0000246
2809.9	0.0000128
2808.0	0.0000074
2806.1	0.0000122
2804.1	0.0000191
2802.2	0.0000179
2800.3	0.0000092
2798.3	0.0000085
2796.4	0.0000230
2794.5	0.0000372
2792.6	0.0000381
2790.6	0.0000265
2788.7	0.0000077
2786.8	-0.0000077
2784.8	-0.0000088
2782.9	0.0000042
2781.0	0.0000194
2779.1	0.0000265
2777.1	0.0000214
2775.2	0.0000098
2773.3	-0.0000001
2771.3	-0.0000092
2769.4	-0.0000173
2767.5	-0.0000233
2765.6	-0.0000238
2763.6	-0.0000156
2761.7	-0.0000015
2759.8	0.0000121
2757.8	0.0000208
2755.9	0.0000186
2754.0	0.0000084
2752.1	0.0000065
2750.1	0.0000123
2748.2	0.0000124
2746.3	0.0000115
2744.3	0.0000128
2742.4	0.0000120
2740.5	0.0000143
2738.6	0.0000227
2736.6	0.0000296
2734.7	0.0000282
2732.8	0.0000240
2730.8	0.0000321
2728.9	0.0000476
2727.0	0.0000484
2725.1	0.0000385
2723.1	0.0000356
2721.2	0.0000341
2719.3	0.0000253
2717.3	0.0000159
2715.4	0.0000105
2713.5	0.0000089
2711.6	0.0000135
2709.6	0.0000243
2707.7	0.0000353
2705.8	0.0000379
2703.8	0.0000334
2701.9	0.0000288
2700.0	0.0000188
2698.1	0.0000043
2696.1	-0.0000024
2694.2	-0.0000044
2692.3	-0.0000063
2690.3	-0.0000066
2688.4	-0.0000090
2686.5	-0.0000091
2684.6	-0.0000025
2682.6	-0.0000002
2680.7	-0.0000066
2678.8	-0.0000128
2676.8	-0.0000070
2674.9	0.0000124
2673.0	0.0000270
2671.1	0.0000273
2669.1	0.0000250
2667.2	0.0000266
2665.3	0.0000249
2663.3	0.0000163
2661.4	0.0000115
2659.5	0.0000182
2657.6	0.0000311
2655.6	0.0000291
2653.7	0.0000047
2651.8	-0.0000112
2649.8	-0.0000020
2647.9	0.0000143
2646.0	0.0000229
2644.1	0.0000262
2642.1	0.0000285
2640.2	0.0000266
2638.3	0.0000216
2636.3	0.0000190
2634.4	0.0000230
2632.5	0.0000334
2630.6	0.0000389
2628.6	0.0000331
2626.7	0.0000236
2624.8	0.0000095
2622.8	-0.0000098
2620.9	-0.0000198
2619.0	-0.0000111
2617.1	0.0000100
2615.1	0.0000223
2613.2	0.0000171
2611.3	0.0000130
2609.3	0.0000157
2607.4	0.0000182
2605.5	0.0000243
2603.6	0.0000362
2601.6	0.0000436
2599.7	0.0000351
2597.8	0.0000230
2595.8	0.0000297
2593.9	0.0000428
2592.0	0.0000358
2590.1	0.0000221
2588.1	0.0000224
2586.2	0.0000244
2584.3	0.0000195
2582.3	0.0000078
2580.4	-0.0000140
2578.5	-0.0000343
2576.6	-0.0000334
2574.6	-0.0000096
2572.7	0.0000123
2570.8	0.0000192
2568.8	0.0000260
2566.9	0.0000311
2565.0	0.0000198
2563.1	0.0000074
2561.1	0.0000071
2559.2	0.0000055
2557.3	0.0000007
2555.3	-0.0000031
2553.4	-0.0000070
2551.5	-0.0000071
2549.6	-0.0000050
2547.6	0.0000010
2545.7	0.0000123
2543.8	0.0000134
2541.8	-0.0000013
2539.9	-0.0000130
2538.0	-0.0000081
2536.1	0.0000044
2534.1	0.0000067
2532.2	-0.0000071
2530.3	-0.0000183
2528.3	-0.0000076
2526.4	0.0000161
2524.5	0.0000375
2522.6	0.0000485
2520.6	0.0000479
2518.7	0.0000431
2516.8	0.0000293
2514.8	0.0000006
2512.9	-0.0000252
2511.0	-0.0000321
2509.1	-0.0000257
2507.1	-0.0000233
2505.2	-0.0000302
2503.3	-0.0000256
2501.3	-0.0000050
2499.4	0.0000083
2497.5	0.0000045
2495.6	-0.0000037
2493.6	-0.0000040
2491.7	-0.0000003
2489.8	-0.0000009
2487.8	-0.0000046
2485.9	-0.0000096
2484.0	-0.0000108
2482.1	-0.0000091
2480.1	-0.0000056
2478.2	0.0000062
2476.3	0.0000148
2474.3	0.0000039
2472.4	-0.0000180
2470.5	-0.0000292
2468.6	-0.0000191
2466.6	-0.0000019
2464.7	0.0000103
2462.8	0.0000183
2460.8	0.0000166
2458.9	0.0000062
2457.0	-0.0000027
2455.1	-0.0000076
2453.1	-0.0000071
2451.2	0.0000024
2449.3	0.0000195
2447.3	0.0000297
2445.4	0.0000221
2443.5	0.0000128
2441.6	0.0000153
2439.6	0.0000167
2437.7	0.0000142
2435.8	0.0000189
2433.8	0.0000245
2431.9	0.0000196
2430.0	0.0000069
2428.1	-0.0000047
2426.1	-0.0000122
2424.2	-0.0000144
2422.3	-0.0000077
2420.3	0.0000014
2418.4	-0.0000004
2416.5	-0.0000078
2414.6	-0.0000062
2412.6	0.0000056
2410.7	0.0000206
2408.8	0.0000311
2406.8	0.0000341
2404.9	0.0000375
2403.0	0.0000416
2401.1	0.0000302
2399.1	0.0000057
2397.2	-0.0000080
2395.3	-0.0000125
2393.3	-0.0000220
2391.4	-0.0000226
2389.5	-0.0000016
2387.6	0.0000222
2385.6	0.0000299
2383.7	0.0000257
2381.8	0.0000161
2379.8	0.0000021
2377.9	-0.0000038
2376.0	0.0000070
2374.1	0.0000227
2372.1	0.0000366
2370.2	0.0000428
2368.3	0.0000311
2366.3	0.0000180
2364.4	0.0000192
2362.5	0.0000197
2360.6	0.0000144
2358.6	0.0000173
2356.7	0.0000275
2354.8	0.0000296
2352.8	0.0000259
2350.9	0.0000305
2349.0	0.0000410
2347.1	0.0000457
2345.1	0.0000450
2343.2	0.0000468
2341.3	0.0000492
2339.3	0.0000481
2337.4	0.0000442
2335.5	0.0000353
2333.6	0.0000254
2331.6	0.0000240
2329.7	0.0000275
2327.8	0.0000282
2325.8	0.0000276
2323.9	0.0000295
2322.0	0.0000335
2320.1	0.0000405
2318.1	0.0000481
2316.2	0.0000513
2314.3	0.0000551
2312.3	0.0000590
2310.4	0.0000499
2308.5	0.0000330
2306.6	0.0000278
2304.6	0.0000363
2302.7	0.0000505
2300.8	0.0000618
2298.8	0.0000552
2296.9	0.0000373
2295.0	0.0000326
2293.1	0.0000431
2291.1	0.0000538
2289.2	0.0000589
2287.3	0.0000592
2285.3	0.0000558
2283.4	0.0000547
2281.5	0.0000578
2279.6	0.0000588
2277.6	0.0000551
2275.7	0.0000487
2273.8	0.0000414
2271.8	0.0000331
2269.9	0.0000202
2268.0	0.0000090
2266.1	0.0000089
2264.1	0.0000161
2262.2	0.0000248
2260.3	0.0000287
2258.3	0.0000235
2256.4	0.0000210
2254.5	0.0000308
2252.6	0.0000415
2250.6	0.0000440
2248.7	0.0000395
2246.8	0.0000330
2244.8	0.0000295
2242.9	0.0000264
2241.0	0.0000198
2239.1	0.0000190
2237.1	0.0000248
2235.2	0.0000191
2233.3	0.0000039
2231.3	-0.0000005
2229.4	-0.0000010
2227.5	-0.0000036
2225.6	0.0000078
2223.6	0.0000292
2221.7	0.0000413
2219.8	0.0000374
2217.8	0.0000235
2215.9	0.0000172
2214.0	0.0000260
2212.1	0.0000350
2210.1	0.0000338
2208.2	0.0000226
2206.3	0.0000106
2204.3	0.0000048
2202.4	-0.0000030
2200.5	0.0000008
2198.6	0.0000266
2196.6	0.0000410
2194.7	0.0000319
2192.8	0.0000234
2190.8	0.0000218
2188.9	0.0000232
2187.0	0.0000261
2185.1	0.0000287
2183.1	0.0000330
2181.2	0.0000366
2179.3	0.0000371
2177.3	0.0000345
2175.4	0.0000201
2173.5	0.0000017
2171.6	0.0000017
2169.6	0.0000134
2167.7	0.0000163
2165.8	0.0000119
2163.8	0.0000096
2161.9	0.0000105
2160.0	0.0000151
2158.1	0.0000185
2156.1	0.0000183
2154.2	0.0000245
2152.3	0.0000256
2150.3	0.0000049
2148.4	-0.0000071
2146.5	0.0000169
2144.6	0.0000424
2142.6	0.0000400
2140.7	0.0000205
2138.8	-0.0000023
2136.8	-0.0000121
2134.9	-0.0000004
2133.0	0.0000198
2131.1	0.0000328
2129.1	0.0000259
2127.2	0.0000032
2125.3	-0.0000123
2123.3	-0.0000078
2121.4	0.0000116
2119.5	0.0000362
2117.6	0.0000508
2115.6	0.0000421
2113.7	0.0000149
2111.8	-0.0000097
2109.8	-0.0000152
2107.9	-0.0000046
2106.0	0.0000059
2104.1	0.0000074
2102.1	0.0000091
2100.2	0.0000207
2098.3	0.0000375
2096.3	0.0000226
2094.4	0.0000049
2092.5	0.0000069
2090.6	0.0000244
2088.6	0.0000335
2086.7	0.0000117
2084.8	-0.0000285
2082.8	-0.0000458
2080.9	-0.0000164
2079.0	0.0000626
2077.1	0.0001903
2075.1	0.0003433
2073.2	0.0004762
2071.3	0.0005569
2069.3	0.0005877
2067.4	0.0005830
2065.5	0.0005521
2063.6	0.0005051
2061.6	0.0004568
2059.7	0.0004125
2057.8	0.0003657
2055.8	0.0003218
2053.9	0.0002909
2052.0	0.0002629
2050.1	0.0002264
2048.1	0.0001906
2046.2	0.0001649
2044.3	0.0001435
2042.3	0.0001205
2040.4	0.0000977
2038.5	0.0000788
2036.6	0.0000653
2034.6	0.0000542
2032.7	0.0000448
2030.8	0.0000400
2028.8	0.0000394
2026.9	0.0000389
2025.0	0.0000352
2023.1	0.0000292
2021.1	0.0000197
2019.2	0.0000067
2017.3	-0.0000036
2015.3	-0.0000092
2013.4	-0.0000087
2011.5	-0.0000064
2009.6	-0.0000027
2007.6	0.0000083
2005.7	0.0000163
2003.8	0.0000127
2001.8	0.0000038
1999.9	-0.0000084
1998.0	-0.0000198
1996.1	-0.0000204
1994.1	-0.0000085
1992.2	0.0000049
1990.3	0.0000062
1988.3	0.0000031
1986.4	-0.0000047
1984.5	-0.0000175
1982.6	-0.0000254
1980.6	-0.0000272
1978.7	-0.0000273
1976.8	-0.0000252
1974.8	-0.0000201
1972.9	-0.0000203
1971.0	-0.0000322
1969.1	-0.0000414
1967.1	-0.0000387
1965.2	-0.0000306
1963.3	-0.0000079
1961.4	0.0000308
1959.4	0.0000549
1957.5	0.0000372
1955.6	0.0000021
1953.6	-0.0000142
1951.7	-0.0000168
1949.8	-0.0000231
1947.9	-0.0000308
1945.9	-0.0000316
1944.0	-0.0000233
1942.1	-0.0000162
1940.1	-0.0000173
1938.2	-0.0000208
1936.3	-0.0000204
1934.4	-0.0000016
1932.4	0.0000219
1930.5	0.0000315
1928.6	0.0000240
1926.6	-0.0000031
1924.7	-0.0000300
1922.8	-0.0000414
1920.9	-0.0000496
1918.9	-0.0000382
1917.0	-0.0000281
1915.1	-0.0000225
1913.1	-0.0000061
1911.2	0.0000058
1909.3	0.0000089
1907.4	0.0000018
1905.4	-0.0000002
1903.5	0.0000166
1901.6	0.0000443
1899.6	0.0000740
1897.7	0.0001121
1895.8	0.0001599
1893.9	0.0002026
1891.9	0.0002471
1890.0	0.0003046
1888.1	0.0003510
1886.1	0.0003864
1884.2	0.0004155
1882.3	0.0004422
1880.4	0.0004668
1878.4	0.0004735
1876.5	0.0004670
1874.6	0.0004575
1872.6	0.0004378
1870.7	0.0004185
1868.8	0.0003938
1866.9	0.0003497
1864.9	0.0003180
1863.0	0.0003022
1861.1	0.0002852
1859.1	0.0002606
1857.2	0.0002390
1855.3	0.0002271
1853.4	0.0002168
1851.4	0.0002062
1849.5	0.0001950
1847.6	0.0001695
1845.6	0.0001637
1843.7	0.0001590
1841.8	0.0001238
1839.9	0.0001266
1837.9	0.0001357
1836.0	0.0001248
1834.1	0.0001019
1832.1	0.0000862
1830.2	0.0000832
1828.3	0.0000516
1826.4	0.0000361
1824.4	0.0000375
1822.5	0.0000279
1820.6	0.0000280
1818.6	0.0000295
1816.7	0.0000250
1814.8	0.0000164
1812.9	0.0000155
1810.9	0.0000124
1809.0	-0.0000011
1807.1	-0.0000086
1805.1	-0.0000095
1803.2	-0.0000038
1801.3	-0.0000018
1799.4	-0.0000233
1797.4	-0.0000503
1795.5	-0.0000566
1793.6	-0.0000236
1791.6	-0.0000110
1789.7	-0.0000374
1787.8	-0.0000378
1785.9	-0.0000223
1783.9	-0.0000354
1782.0	-0.0000505
1780.1	-0.0000426
1778.1	-0.0000443
1776.2	-0.0000576
1774.3	-0.0000480
1772.4	-0.0000351
1770.4	-0.0000616
1768.5	-0.0000413
1766.6	-0.0000406
1764.6	-0.0000514
1762.7	-0.0000249
1760.8	-0.0000485
1758.9	-0.0000887
1756.9	-0.0000868
1755.0	-0.0001038
1753.1	-0.0000824
1751.1	-0.0000459
1749.2	-0.0000686
1747.3	-0.0000767
1745.4	-0.0000616
1743.4	-0.0000587
1741.5	-0.0000487
1739.6	-0.0000306
1737.6	-0.0000562
1735.7	-0.0000070
1733.8	0.0000419
1731.9	-0.0000316
1729.9	-0.0000362
1728.0	-0.0000077
1726.1	-0.0000035
1724.1	0.0000021
1722.2	-0.0000233
1720.3	-0.0000522
1718.4	-0.0000227
1716.4	-0.0000482
1714.5	-0.0000954
1712.6	-0.0000907
1710.6	-0.0000695
1708.7	-0.0000509
1706.8	-0.0000325
1704.9	-0.0000620
1702.9	-0.0000976
1701.0	-0.0000333
1699.1	-0.0000848
1697.1	-0.0000873
1695.2	-0.0000374
1693.3	-0.0001097
1691.4	-0.0000936
1689.4	-0.0000819
1687.5	-0.0000962
1685.6	-0.0000045
1683.6	-0.0000062
1681.7	-0.0000932
1679.8	-0.0000692
1677.9	-0.0000345
1675.9	0.0000027
1674.0	-0.0000181
1672.1	-0.0000325
1670.1	0.0000146
1668.2	0.0000058
1666.3	-0.0000302
1664.4	0.0000002
1662.4	0.0000308
1660.5	0.0000265
1658.6	0.0000126
1656.6	-0.0000384
1654.7	0.0000123
1652.8	0.0000596
1650.9	-0.0000912
1648.9	-0.0001008
1647.0	-0.0000014
1645.1	-0.0000266
1643.1	-0.0000735
1641.2	-0.0000535
1639.3	-0.0000412
1637.4	0.0000049
1635.4	0.0000482
1633.5	0.0000032
1631.6	0.0000247
1629.6	0.0001077
1627.7	0.0001567
1625.8	0.0001735
1623.9	0.0002067
1621.9	0.0001922
1620.0	0.0001541
1618.1	0.0001960
1616.1	0.0001890
1614.2	0.0001090
1612.3	0.0001298
1610.4	0.0001770
1608.4	0.0001888
1606.5	0.0001748
1604.6	0.0001543
1602.6	0.0001472
1600.7	0.0001492
1598.8	0.0001471
1596.9	0.0001452
1594.9	0.0001428
1593.0	0.0001273
1591.1	0.0001072
1589.1	0.0000926
1587.2	0.0000836
1585.3	0.0000763
1583.4	0.0000656
1581.4	0.0000434
1579.5	0.0000164
1577.6	0.0000731
1575.6	0.0000935
1573.7	-0.0000059
1571.8	-0.0000092
1569.9	0.0000457
1567.9	0.0000382
1566.0	0.0000333
1564.1	0.0000033
1562.1	-0.0000399
1560.2	0.0000193
1558.3	-0.0000021
1556.4	-0.0000892
1554.4	-0.0000393
1552.5	0.0000041
1550.6	0.0000218
1548.6	0.0000189
1546.7	0.0000183
1544.8	0.0000358
1542.9	0.0000413
1540.9	0.0000754
1539.0	0.0000550
1537.1	-0.0000363
1535.1	-0.0000107
1533.2	0.0000154
1531.3	-0.0000527
1529.4	-0.0000888
1527.4	-0.0001026
1525.5	-0.0001576
1523.6	-0.0002071
1521.6	-0.0001934
1519.7	-0.0002212
1517.8	-0.0001887
1515.9	-0.0000918
1513.9	0.0000136
1512.0	0.0001299
1510.1	0.0001984
1508.1	0.0002898
1506.2	0.0003199
1504.3	0.0002001
1502.4	0.0001465
1500.4	0.0001323
1498.5	0.0000600
1496.6	-0.0000187
1494.6	-0.0000843
1492.7	-0.0000795
1490.8	-0.0000366
1488.9	-0.0000509
1486.9	-0.0000568
1485.0	-0.0000247
1483.1	0.0000259
1481.1	0.0000638
1479.2	0.0000688
1477.3	0.0000602
1475.4	0.0000492
1473.4	0.0000678
1471.5	0.0000461
1469.6	-0.0000097
1467.6	-0.0000145
1465.7	0.0000125
1463.8	0.0000062
1461.9	-0.0000187
1459.9	-0.0000037
1458.0	0.0000703
1456.1	0.0000598
1454.1	-0.0000111
1452.2	0.0000164
1450.3	0.0000618
1448.4	0.0000812
1446.4	0.0000553
1444.5	0.0000295
1442.6	0.0000325
1440.6	0.0000246
1438.7	0.0000503
1436.8	0.0001035
1434.9	0.0000763
1432.9	0.0000653
1431.0	0.0000788
1429.1	0.0000467
1427.1	0.0000153
1425.2	0.0000303
1423.3	0.0000319
1421.4	0.0000454
1419.4	0.0000933
1417.5	0.0000754
1415.6	0.0000664
1413.6	0.0000911
1411.7	0.0001143
1409.8	0.0001335
1407.9	0.0001370
1405.9	0.0001140
1404.0	0.0000634
1402.1	0.0000316
1400.1	0.0000513
1398.2	0.0000564
1396.3	0.0000577
1394.4	0.0000789
1392.4	0.0000732
1390.5	0.0000799
1388.6	0.0001297
1386.6	0.0001781
1384.7	0.0001960
1382.8	0.0001972
1380.9	0.0001843
1378.9	0.0001756
1377.0	0.0001507
1375.1	0.0001090
1373.1	0.0000637
1371.2	0.0000303
1369.3	0.0000155
1367.4	-0.0000015
1365.4	-0.0000010
1363.5	0.0000272
1361.6	0.0000432
1359.6	0.0000452
1357.7	0.0000522
1355.8	0.0000574
1353.9	0.0000483
1351.9	0.0000282
1350.0	0.0000095
1348.1	-0.0000006
1346.1	-0.0000030
1344.2	-0.0000071
1342.3	-0.0000156
1340.4	-0.0000221
1338.4	-0.0000295
1336.5	-0.0000269
1334.6	-0.0000082
1332.6	0.0000082
1330.7	0.0000054
1328.8	-0.0000102
1326.9	-0.0000195
1324.9	-0.0000245
1323.0	-0.0000346
1321.1	-0.0000407
1319.1	-0.0000396
1317.2	-0.0000432
1315.3	-0.0000466
1313.4	-0.0000377
1311.4	-0.0000246
1309.5	-0.0000207
1307.6	-0.0000196
1305.6	-0.0000096
1303.7	-0.0000045
1301.8	-0.0000141
1299.9	-0.0000196
1297.9	-0.0000122
1296.0	-0.0000014
1294.1	0.0000132
1292.1	0.0000370
1290.2	0.0000630
1288.3	0.0000906
1286.4	0.0001318
1284.4	0.0001799
1282.5	0.0002088
1280.6	0.0002155
1278.6	0.0002210
1276.7	0.0002350
1274.8	0.0002536
1272.9	0.0002731
1270.9	0.0002973
1269.0	0.0003383
1267.1	0.0003934
1265.1	0.0004379
1263.2	0.0004649
1261.3	0.0004927
1259.4	0.0005213
1257.4	0.0005350
1255.5	0.0005354
1253.6	0.0005328
1251.6	0.0005324
1249.7	0.0005366
1247.8	0.0005507
1245.9	0.0005846
1243.9	0.0006355
1242.0	0.0007010
1240.1	0.0007689
1238.1	0.0008079
1236.2	0.0008154
1234.3	0.0008179
1232.4	0.0008233
1230.4	0.0008228
1228.5	0.0008185
1226.6	0.0008191
1224.6	0.0008176
1222.7	0.0008128
1220.8	0.0008192
1218.9	0.0008455
1216.9	0.0008811
1215.0	0.0009051
1213.1	0.0009070
1211.1	0.0008931
1209.2	0.0008770
1207.3	0.0008707
1205.4	0.0008727
1203.4	0.0008707
1201.5	0.0008590
1199.6	0.0008533
1197.6	0.0008330
1195.7	0.0008217
1193.8	0.0008091
1191.9	0.0008006
1189.9	0.0008134
1188.0	0.0008295
1186.1	0.0008266
1184.1	0.0008220
1182.2	0.0008213
1180.3	0.0008175
1178.4	0.0008275
1176.4	0.0008469
1174.5	0.0008502
1172.6	0.0008422
1170.6	0.0008475
1168.7	0.0008641
1166.8	0.0008624
1164.9	0.0008381
1162.9	0.0008129
1161.0	0.0007969
1159.1	0.0007945
1157.1	0.0007980
1155.2	0.0007921
1153.3	0.0007740
1151.4	0.0007536
1149.4	0.0007452
1147.5	0.0007400
1145.6	0.0007207
1143.6	0.0007098
1141.7	0.0007122
1139.8	0.0006900
1137.9	0.0006444
1135.9	0.0006115
1134.0	0.0006064
1132.1	0.0006117
1130.1	0.0005991
1128.2	0.0005794
1126.3	0.0005842
1124.4	0.0005963
1122.4	0.0005838
1120.5	0.0005645
1118.6	0.0005538
1116.6	0.0005366
1114.7	0.0005167
1112.8	0.0005057
1110.9	0.0004939
1108.9	0.0004618
1107.0	0.0004123
1105.1	0.0003877
1103.1	0.0003980
1101.2	0.0003872
1099.3	0.0003343
1097.4	0.0002916
1095.4	0.0002827
1093.5	0.0002672
1091.6	0.0002267
1089.6	0.0001826
1087.7	0.0001492
1085.8	0.0001357
1083.9	0.0001457
1081.9	0.0001537
1080.0	0.0001334
1078.1	0.0000934
1076.1	0.0000589
1074.2	0.0000324
1072.3	-0.0000029
1070.4	-0.0000345
1068.4	-0.0000307
1066.5	-0.0000069
1064.6	-0.0000144
1062.6	-0.0000486
1060.7	-0.0000569
1058.8	-0.0000382
1056.9	-0.0000198
1054.9	0.0000091
1053.0	0.0000470
1051.1	0.0000505
1049.1	0.0000160
1047.2	-0.0000094
1045.3	-0.0000098
1043.4	0.0000008
1041.4	0.0000173
1039.5	0.0000300
1037.6	0.0000181
1035.6	-0.0000120
1033.7	-0.0000231
1031.8	-0.0000105
1029.9	0.0000028
1027.9	0.0000090
1026.0	0.0000132
1024.1	0.0000124
1022.1	-0.0000007
1020.2	-0.0000220
1018.3	-0.0000455
1016.4	-0.0000591
1014.4	-0.0000730
1012.5	-0.0001238
1010.6	-0.0001989
1008.6	-0.0002652
1006.7	-0.0003384
1004.8	-0.0004313
1002.9	-0.0005226
1000.9	-0.0005939
999.0	-0.0006479
997.1	-0.0007091
995.1	-0.0007889
993.2	-0.0008611
991.3	-0.0009093
989.4	-0.0009435
987.4	-0.0010017
985.5	-0.0011058
983.6	-0.0012015
981.6	-0.0012702
979.7	-0.0013603
977.8	-0.0014465
975.9	-0.0014688
973.9	-0.0014698
972.0	-0.0015090
970.1	-0.0015767
968.1	-0.0016530
966.2	-0.0016986
964.3	-0.0016943
962.4	-0.0016882
960.4	-0.0017056
958.5	-0.0017314
956.6	-0.0017667
954.6	-0.0018073
952.7	-0.0018201
950.8	-0.0017924
948.9	-0.0017507
946.9	-0.0017352
945.0	-0.0017538
943.1	-0.0017649
941.1	-0.0017451
939.2	-0.0017235
937.3	-0.0017204
935.4	-0.0017012
933.4	-0.0016433
931.5	-0.0015832
929.6	-0.0015442
927.6	-0.0015339
925.7	-0.0015559
923.8	-0.0015746
921.9	-0.0015477
919.9	-0.0014907
918.0	-0.0014362
916.1	-0.0013759
914.1	-0.0013189
912.2	-0.0012791
910.3	-0.0012344
908.4	-0.0011708
906.4	-0.0011027
904.5	-0.0010578
902.6	-0.0010333
900.6	-0.0009762
898.7	-0.0008638
896.8	-0.0007797
894.9	-0.0007685
892.9	-0.0007523
891.0	-0.0007065
889.1	-0.0006460
887.1	-0.0005438
885.2	-0.0004306
883.3	-0.0003642
881.4	-0.0003202
879.4	-0.0002403
877.5	-0.0001310
875.6	-0.0000234
873.6	0.0000614
871.7	0.0000635
869.8	-0.0000497
867.9	-0.0001643
865.9	-0.0001643
864.0	-0.0000939
862.1	-0.0000012
860.1	0.0000688
858.2	0.0000519
856.3	0.0000253
854.4	0.0000503
852.4	0.0000664
850.5	0.0000379
848.6	-0.0000107
