3997.91406	0.00004
3995.98550	0.00003
3994.05693	0.00002
3992.12837	0.00001
3990.19980	0.00001
3988.27124	0.00001
3986.34268	0.00003
3984.41411	0.00003
3982.48555	0.00002
3980.55698	0.00001
3978.62842	0.00001
3976.69985	0.00002
3974.77129	0.00002
3972.84272	0.00002
3970.91416	0.00002
3968.98560	0.00002
3967.05703	0.00003
3965.12847	0.00004
3963.19990	0.00004
3961.27134	0.00002
3959.34277	0.00002
3957.41421	0.00002
3955.48564	0.00001
3953.55708	0.00000
3951.62852	-0.00000
3949.69995	-0.00001
3947.77139	-0.00001
3945.84282	-0.00001
3943.91426	-0.00002
3941.98569	-0.00001
3940.05713	0.00000
3938.12856	0.00001
3936.20000	0.00001
3934.27144	0.00001
3932.34287	0.00000
3930.41431	0.00000
3928.48574	0.00000
3926.55718	-0.00001
3924.62861	-0.00001
3922.70005	-0.00002
3920.77148	-0.00003
3918.84292	-0.00005
3916.91436	-0.00004
3914.98579	-0.00002
3913.05723	0.00000
3911.12866	0.00001
3909.20010	0.00002
3907.27153	-0.00001
3905.34297	-0.00006
3903.41440	-0.00010
3901.48584	-0.00011
3899.55728	-0.00008
3897.62871	-0.00004
3895.70015	-0.00000
3893.77158	-0.00002
3891.84302	-0.00004
3889.91445	-0.00005
3887.98589	-0.00007
3886.05733	-0.00010
3884.12876	-0.00009
3882.20020	-0.00009
3880.27163	-0.00008
3878.34307	-0.00004
3876.41450	-0.00003
3874.48594	-0.00005
3872.55737	-0.00010
3870.62881	-0.00014
3868.70025	-0.00013
3866.77168	-0.00010
3864.84312	-0.00010
3862.91455	-0.00008
3860.98599	-0.00004
3859.05742	-0.00005
3857.12886	-0.00016
3855.20029	-0.00034
3853.27173	-0.00039
3851.34317	-0.00024
3849.41460	-0.00008
3847.48604	-0.00001
3845.55747	-0.00002
3843.62891	-0.00005
3841.70034	-0.00010
3839.77178	-0.00018
3837.84321	-0.00021
3835.91465	-0.00015
3833.98609	-0.00009
3832.05752	-0.00006
3830.12896	-0.00003
3828.20039	-0.00002
3826.27183	-0.00003
3824.34326	-0.00007
3822.41470	-0.00014
3820.48613	-0.00016
3818.55757	-0.00016
3816.62901	-0.00015
3814.70044	-0.00009
3812.77188	-0.00001
3810.84331	-0.00000
3808.91475	-0.00006
3806.98618	-0.00010
3805.05762	-0.00011
3803.12905	-0.00017
3801.20049	-0.00018
3799.27193	-0.00011
3797.34336	-0.00005
3795.41480	-0.00001
3793.48623	0.00001
3791.55767	0.00001
3789.62910	0.00001
3787.70054	0.00001
3785.77197	-0.00000
3783.84341	-0.00002
3781.91485	-0.00004
3779.98628	-0.00006
3778.05772	-0.00005
3776.12915	-0.00000
3774.20059	0.00002
3772.27202	-0.00001
3770.34346	-0.00003
3768.41489	-0.00003
3766.48633	-0.00002
3764.55777	-0.00002
3762.62920	-0.00003
3760.70064	-0.00005
3758.77207	-0.00005
3756.84351	-0.00004
3754.91494	-0.00010
3752.98638	-0.00023
3751.05781	-0.00030
3749.12925	-0.00028
3747.20069	-0.00028
3745.27212	-0.00033
3743.34356	-0.00026
3741.41499	-0.00012
3739.48643	-0.00009
3737.55786	-0.00016
3735.62930	-0.00019
3733.70074	-0.00016
3731.77217	-0.00010
3729.84361	-0.00005
3727.91504	-0.00003
3725.98648	-0.00004
3724.05791	-0.00004
3722.12935	-0.00004
3720.20078	-0.00002
3718.27222	-0.00001
3716.34366	-0.00003
3714.41509	-0.00009
3712.48653	-0.00016
3710.55796	-0.00014
3708.62940	-0.00007
3706.70083	-0.00002
3704.77227	-0.00002
3702.84370	-0.00005
3700.91514	-0.00004
3698.98658	-0.00002
3697.05801	0.00000
3695.12945	0.00000
3693.20088	-0.00004
3691.27232	-0.00012
3689.34375	-0.00017
3687.41519	-0.00013
3685.48662	-0.00004
3683.55806	-0.00001
3681.62950	-0.00002
3679.70093	-0.00007
3677.77237	-0.00016
3675.84380	-0.00023
3673.91524	-0.00020
3671.98667	-0.00017
3670.05811	-0.00015
3668.12954	-0.00008
3666.20098	-0.00001
3664.27242	0.00002
3662.34385	0.00001
3660.41529	-0.00001
3658.48672	-0.00005
3656.55816	-0.00007
3654.62959	-0.00007
3652.70103	-0.00011
3650.77246	-0.00020
3648.84390	-0.00022
3646.91534	-0.00014
3644.98677	-0.00005
3643.05821	-0.00002
3641.12964	-0.00001
3639.20108	0.00000
3637.27251	-0.00001
3635.34395	-0.00003
3633.41538	-0.00006
3631.48682	-0.00013
3629.55826	-0.00020
3627.62969	-0.00016
3625.70113	-0.00007
3623.77256	-0.00003
3621.84400	-0.00006
3619.91543	-0.00010
3617.98687	-0.00010
3616.05830	-0.00009
3614.12974	-0.00009
3612.20118	-0.00010
3610.27261	-0.00011
3608.34405	-0.00010
3606.41548	-0.00006
3604.48692	-0.00004
3602.55835	-0.00004
3600.62979	-0.00003
3598.70123	-0.00003
3596.77266	-0.00004
3594.84410	-0.00004
3592.91553	-0.00003
3590.98697	-0.00004
3589.05840	-0.00007
3587.12984	-0.00008
3585.20127	-0.00006
3583.27271	-0.00003
3581.34415	-0.00003
3579.41558	-0.00002
3577.48702	-0.00002
3575.55845	-0.00002
3573.62989	-0.00002
3571.70132	-0.00002
3569.77276	-0.00004
3567.84419	-0.00007
3565.91563	-0.00007
3563.98707	-0.00005
3562.05850	-0.00002
3560.12994	-0.00000
3558.20137	0.00001
3556.27281	0.00001
3554.34424	-0.00001
3552.41568	-0.00001
3550.48711	-0.00001
3548.55855	-0.00002
3546.62999	-0.00003
3544.70142	-0.00003
3542.77286	-0.00002
3540.84429	-0.00001
3538.91573	-0.00001
3536.98716	-0.00001
3535.05860	-0.00002
3533.13003	-0.00002
3531.20147	-0.00003
3529.27291	-0.00003
3527.34434	-0.00003
3525.41578	-0.00002
3523.48721	-0.00001
3521.55865	-0.00001
3519.63008	-0.00001
3517.70152	-0.00001
3515.77295	0.00000
3513.84439	0.00000
3511.91583	-0.00001
3509.98726	-0.00003
3508.05870	-0.00003
3506.13013	-0.00002
3504.20157	-0.00001
3502.27300	0.00000
3500.34444	0.00001
3498.41587	-0.00001
3496.48731	-0.00002
3494.55875	-0.00003
3492.63018	-0.00003
3490.70162	-0.00003
3488.77305	-0.00002
3486.84449	-0.00000
3484.91592	-0.00000
3482.98736	-0.00001
3481.05879	-0.00002
3479.13023	-0.00001
3477.20167	-0.00001
3475.27310	-0.00002
3473.34454	-0.00002
3471.41597	-0.00002
3469.48741	-0.00001
3467.55884	-0.00001
3465.63028	-0.00001
3463.70171	-0.00000
3461.77315	-0.00001
3459.84459	-0.00003
3457.91602	-0.00003
3455.98746	-0.00002
3454.05889	-0.00001
3452.13033	-0.00001
3450.20176	-0.00002
3448.27320	-0.00003
3446.34464	-0.00002
3444.41607	-0.00001
3442.48751	-0.00001
3440.55894	-0.00001
3438.63038	-0.00001
3436.70181	-0.00000
3434.77325	-0.00000
3432.84468	-0.00000
3430.91612	0.00001
3428.98756	0.00002
3427.05899	0.00003
3425.13043	0.00004
3423.20186	0.00003
3421.27330	0.00002
3419.34473	0.00001
3417.41617	0.00002
3415.48760	0.00002
3413.55904	0.00001
3411.63048	0.00000
3409.70191	-0.00000
3407.77335	0.00001
3405.84478	0.00002
3403.91622	0.00002
3401.98765	0.00002
3400.05909	0.00002
3398.13052	0.00000
3396.20196	-0.00000
3394.27340	-0.00000
3392.34483	0.00001
3390.41627	0.00002
3388.48770	0.00004
3386.55914	0.00003
3384.63057	0.00002
3382.70201	0.00002
3380.77344	0.00001
3378.84488	0.00001
3376.91632	0.00000
3374.98775	-0.00000
3373.05919	-0.00000
3371.13062	0.00000
3369.20206	0.00000
3367.27349	0.00000
3365.34493	0.00000
3363.41636	0.00000
3361.48780	-0.00001
3359.55924	-0.00002
3357.63067	-0.00002
3355.70211	-0.00001
3353.77354	0.00000
3351.84498	0.00001
3349.91641	0.00001
3347.98785	0.00001
3346.05928	0.00001
3344.13072	0.00001
3342.20216	-0.00001
3340.27359	-0.00002
3338.34503	-0.00002
3336.41646	-0.00001
3334.48790	-0.00002
3332.55933	-0.00002
3330.63077	-0.00001
3328.70220	-0.00002
3326.77364	-0.00002
3324.84508	-0.00002
3322.91651	-0.00002
3320.98795	-0.00003
3319.05938	-0.00004
3317.13082	-0.00003
3315.20225	-0.00003
3313.27369	-0.00002
3311.34513	-0.00001
3309.41656	0.00000
3307.48800	0.00002
3305.55943	0.00002
3303.63087	0.00001
3301.70230	-0.00000
3299.77374	-0.00001
3297.84517	0.00000
3295.91661	0.00001
3293.98805	0.00001
3292.05948	0.00001
3290.13092	0.00001
3288.20235	0.00001
3286.27379	0.00000
3284.34522	-0.00000
3282.41666	-0.00000
3280.48809	0.00000
3278.55953	0.00001
3276.63097	0.00000
3274.70240	-0.00000
3272.77384	-0.00000
3270.84527	-0.00000
3268.91671	-0.00000
3266.98814	0.00000
3265.05958	0.00001
3263.13101	0.00000
3261.20245	0.00000
3259.27389	-0.00000
3257.34532	-0.00001
3255.41676	-0.00001
3253.48819	0.00000
3251.55963	0.00000
3249.63106	0.00000
3247.70250	0.00000
3245.77393	0.00000
3243.84537	0.00000
3241.91681	0.00000
3239.98824	0.00000
3238.05968	0.00000
3236.13111	0.00001
3234.20255	0.00001
3232.27398	0.00001
3230.34542	0.00000
3228.41685	0.00000
3226.48829	0.00000
3224.55973	0.00000
3222.63116	0.00001
3220.70260	0.00002
3218.77403	0.00001
3216.84547	-0.00000
3214.91690	-0.00002
3212.98834	-0.00002
3211.05977	-0.00003
3209.13121	-0.00003
3207.20265	-0.00004
3205.27408	-0.00005
3203.34552	-0.00006
3201.41695	-0.00006
3199.48839	-0.00006
3197.55982	-0.00006
3195.63126	-0.00006
3193.70269	-0.00007
3191.77413	-0.00008
3189.84557	-0.00009
3187.91700	-0.00009
3185.98844	-0.00009
3184.05987	-0.00010
3182.13131	-0.00010
3180.20274	-0.00010
3178.27418	-0.00010
3176.34562	-0.00010
3174.41705	-0.00010
3172.48849	-0.00011
3170.55992	-0.00013
3168.63136	-0.00014
3166.70279	-0.00014
3164.77423	-0.00014
3162.84566	-0.00014
3160.91710	-0.00014
3158.98854	-0.00014
3157.05997	-0.00014
3155.13141	-0.00015
3153.20284	-0.00017
3151.27428	-0.00017
3149.34571	-0.00017
3147.41715	-0.00016
3145.48858	-0.00016
3143.56002	-0.00018
3141.63146	-0.00019
3139.70289	-0.00018
3137.77433	-0.00017
3135.84576	-0.00018
3133.91720	-0.00018
3131.98863	-0.00019
3130.06007	-0.00019
3128.13150	-0.00020
3126.20294	-0.00021
3124.27438	-0.00021
3122.34581	-0.00022
3120.41725	-0.00023
3118.48868	-0.00024
3116.56012	-0.00024
3114.63155	-0.00025
3112.70299	-0.00025
3110.77442	-0.00027
3108.84586	-0.00028
3106.91730	-0.00028
3104.98873	-0.00029
3103.06017	-0.00030
3101.13160	-0.00030
3099.20304	-0.00030
3097.27447	-0.00031
3095.34591	-0.00031
3093.41734	-0.00031
3091.48878	-0.00031
3089.56022	-0.00030
3087.63165	-0.00030
3085.70309	-0.00031
3083.77452	-0.00031
3081.84596	-0.00031
3079.91739	-0.00032
3077.98883	-0.00033
3076.06026	-0.00033
3074.13170	-0.00033
3072.20314	-0.00033
3070.27457	-0.00033
3068.34601	-0.00032
3066.41744	-0.00032
3064.48888	-0.00033
3062.56031	-0.00034
3060.63175	-0.00034
3058.70318	-0.00035
3056.77462	-0.00036
3054.84606	-0.00036
3052.91749	-0.00036
3050.98893	-0.00037
3049.06036	-0.00038
3047.13180	-0.00039
3045.20323	-0.00039
3043.27467	-0.00038
3041.34610	-0.00039
3039.41754	-0.00040
3037.48898	-0.00041
3035.56041	-0.00041
3033.63185	-0.00042
3031.70328	-0.00043
3029.77472	-0.00044
3027.84615	-0.00043
3025.91759	-0.00043
3023.98903	-0.00043
3022.06046	-0.00043
3020.13190	-0.00043
3018.20333	-0.00043
3016.27477	-0.00042
3014.34620	-0.00041
3012.41764	-0.00041
3010.48907	-0.00041
3008.56051	-0.00041
3006.63195	-0.00041
3004.70338	-0.00041
3002.77482	-0.00040
3000.84625	-0.00040
2998.91769	-0.00040
2996.98912	-0.00041
2995.06056	-0.00042
2993.13199	-0.00044
2991.20343	-0.00044
2989.27487	-0.00044
2987.34630	-0.00043
2985.41774	-0.00043
2983.48917	-0.00044
2981.56061	-0.00043
2979.63204	-0.00042
2977.70348	-0.00041
2975.77491	-0.00040
2973.84635	-0.00038
2971.91779	-0.00037
2969.98922	-0.00037
2968.06066	-0.00036
2966.13209	-0.00035
2964.20353	-0.00033
2962.27496	-0.00033
2960.34640	-0.00035
2958.41783	-0.00037
2956.48927	-0.00038
2954.56071	-0.00037
2952.63214	-0.00036
2950.70358	-0.00036
2948.77501	-0.00038
2946.84645	-0.00040
2944.91788	-0.00040
2942.98932	-0.00041
2941.06075	-0.00041
2939.13219	-0.00040
2937.20363	-0.00040
2935.27506	-0.00040
2933.34650	-0.00041
2931.41793	-0.00042
2929.48937	-0.00042
2927.56080	-0.00042
2925.63224	-0.00043
2923.70367	-0.00043
2921.77511	-0.00043
2919.84655	-0.00043
2917.91798	-0.00043
2915.98942	-0.00042
2914.06085	-0.00041
2912.13229	-0.00039
2910.20372	-0.00038
2908.27516	-0.00036
2906.34659	-0.00035
2904.41803	-0.00034
2902.48947	-0.00034
2900.56090	-0.00033
2898.63234	-0.00032
2896.70377	-0.00031
2894.77521	-0.00030
2892.84664	-0.00028
2890.91808	-0.00027
2888.98952	-0.00027
2887.06095	-0.00027
2885.13239	-0.00027
2883.20382	-0.00026
2881.27526	-0.00025
2879.34669	-0.00024
2877.41813	-0.00024
2875.48956	-0.00025
2873.56100	-0.00024
2871.63244	-0.00023
2869.70387	-0.00023
2867.77531	-0.00023
2865.84674	-0.00023
2863.91818	-0.00023
2861.98961	-0.00023
2860.06105	-0.00022
2858.13248	-0.00023
2856.20392	-0.00023
2854.27536	-0.00023
2852.34679	-0.00022
2850.41823	-0.00022
2848.48966	-0.00022
2846.56110	-0.00021
2844.63253	-0.00021
2842.70397	-0.00021
2840.77540	-0.00020
2838.84684	-0.00019
2836.91828	-0.00019
2834.98971	-0.00018
2833.06115	-0.00018
2831.13258	-0.00018
2829.20402	-0.00016
2827.27545	-0.00015
2825.34689	-0.00016
2823.41832	-0.00017
2821.48976	-0.00017
2819.56120	-0.00016
2817.63263	-0.00015
2815.70407	-0.00015
2813.77550	-0.00015
2811.84694	-0.00016
2809.91837	-0.00017
2807.98981	-0.00018
2806.06124	-0.00018
2804.13268	-0.00017
2802.20412	-0.00016
2800.27555	-0.00016
2798.34699	-0.00017
2796.41842	-0.00017
2794.48986	-0.00017
2792.56129	-0.00017
2790.63273	-0.00016
2788.70416	-0.00017
2786.77560	-0.00016
2784.84704	-0.00015
2782.91847	-0.00014
2780.98991	-0.00013
2779.06134	-0.00013
2777.13278	-0.00012
2775.20421	-0.00012
2773.27565	-0.00012
2771.34708	-0.00012
2769.41852	-0.00012
2767.48996	-0.00011
2765.56139	-0.00010
2763.63283	-0.00009
2761.70426	-0.00010
2759.77570	-0.00010
2757.84713	-0.00011
2755.91857	-0.00011
2753.99001	-0.00012
2752.06144	-0.00012
2750.13288	-0.00013
2748.20431	-0.00013
2746.27575	-0.00012
2744.34718	-0.00012
2742.41862	-0.00012
2740.49005	-0.00013
2738.56149	-0.00013
2736.63293	-0.00013
2734.70436	-0.00012
2732.77580	-0.00011
2730.84723	-0.00011
2728.91867	-0.00010
2726.99010	-0.00011
2725.06154	-0.00012
2723.13297	-0.00012
2721.20441	-0.00012
2719.27585	-0.00011
2717.34728	-0.00012
2715.41872	-0.00013
2713.49015	-0.00013
2711.56159	-0.00013
2709.63302	-0.00014
2707.70446	-0.00015
2705.77589	-0.00016
2703.84733	-0.00016
2701.91877	-0.00016
2699.99020	-0.00016
2698.06164	-0.00016
2696.13307	-0.00016
2694.20451	-0.00016
2692.27594	-0.00016
2690.34738	-0.00017
2688.41881	-0.00017
2686.49025	-0.00016
2684.56169	-0.00016
2682.63312	-0.00014
2680.70456	-0.00013
2678.77599	-0.00012
2676.84743	-0.00012
2674.91886	-0.00011
2672.99030	-0.00010
2671.06173	-0.00010
2669.13317	-0.00009
2667.20461	-0.00008
2665.27604	-0.00008
2663.34748	-0.00008
2661.41891	-0.00008
2659.49035	-0.00008
2657.56178	-0.00008
2655.63322	-0.00008
2653.70465	-0.00008
2651.77609	-0.00008
2649.84753	-0.00010
2647.91896	-0.00012
2645.99040	-0.00013
2644.06183	-0.00014
2642.13327	-0.00014
2640.20470	-0.00014
2638.27614	-0.00014
2636.34757	-0.00014
2634.41901	-0.00014
2632.49045	-0.00013
2630.56188	-0.00011
2628.63332	-0.00010
2626.70475	-0.00008
2624.77619	-0.00006
2622.84762	-0.00005
2620.91906	-0.00004
2618.99049	-0.00004
2617.06193	-0.00004
2615.13337	-0.00003
2613.20480	-0.00002
2611.27624	-0.00002
2609.34767	-0.00003
2607.41911	-0.00003
2605.49054	-0.00003
2603.56198	-0.00003
2601.63342	-0.00003
2599.70485	-0.00003
2597.77629	-0.00003
2595.84772	-0.00003
2593.91916	-0.00003
2591.99059	-0.00004
2590.06203	-0.00004
2588.13346	-0.00004
2586.20490	-0.00005
2584.27634	-0.00007
2582.34777	-0.00008
2580.41921	-0.00009
2578.49064	-0.00010
2576.56208	-0.00010
2574.63351	-0.00009
2572.70495	-0.00009
2570.77638	-0.00008
2568.84782	-0.00007
2566.91926	-0.00006
2564.99069	-0.00005
2563.06213	-0.00005
2561.13356	-0.00004
2559.20500	-0.00004
2557.27643	-0.00003
2555.34787	-0.00002
2553.41930	-0.00002
2551.49074	-0.00001
2549.56218	-0.00001
2547.63361	-0.00001
2545.70505	-0.00001
2543.77648	-0.00000
2541.84792	-0.00000
2539.91935	-0.00000
2537.99079	-0.00001
2536.06222	-0.00001
2534.13366	-0.00001
2532.20510	-0.00001
2530.27653	-0.00000
2528.34797	-0.00000
2526.41940	0.00000
2524.49084	0.00001
2522.56227	0.00001
2520.63371	0.00001
2518.70514	0.00000
2516.77658	0.00000
2514.84802	0.00001
2512.91945	0.00002
2510.99089	0.00002
2509.06232	0.00002
2507.13376	0.00003
2505.20519	0.00003
2503.27663	0.00002
2501.34806	0.00002
2499.41950	0.00002
2497.49094	0.00002
2495.56237	0.00002
2493.63381	0.00002
2491.70524	0.00003
2489.77668	0.00003
2487.84811	0.00003
2485.91955	0.00003
2483.99098	0.00003
2482.06242	0.00002
2480.13386	0.00002
2478.20529	0.00003
2476.27673	0.00003
2474.34816	0.00003
2472.41960	0.00003
2470.49103	0.00003
2468.56247	0.00002
2466.63391	0.00001
2464.70534	0.00000
2462.77678	0.00000
2460.84821	0.00001
2458.91965	0.00002
2456.99108	0.00001
2455.06252	0.00000
2453.13395	0.00001
2451.20539	0.00001
2449.27683	0.00002
2447.34826	0.00003
2445.41970	0.00003
2443.49113	0.00003
2441.56257	0.00002
2439.63400	0.00001
2437.70544	0.00002
2435.77687	0.00002
2433.84831	0.00001
2431.91975	0.00001
2429.99118	0.00002
2428.06262	0.00002
2426.13405	0.00002
2424.20549	0.00001
2422.27692	0.00001
2420.34836	0.00000
2418.41979	0.00000
2416.49123	0.00000
2414.56267	0.00001
2412.63410	0.00001
2410.70554	0.00001
2408.77697	0.00001
2406.84841	0.00000
2404.91984	0.00000
2402.99128	0.00001
2401.06271	0.00001
2399.13415	0.00001
2397.20559	0.00001
2395.27702	0.00001
2393.34846	0.00002
2391.41989	0.00002
2389.49133	0.00001
2387.56276	0.00000
2385.63420	0.00000
2383.70563	0.00001
2381.77707	0.00001
2379.84851	0.00000
2377.91994	0.00000
2375.99138	0.00000
2374.06281	0.00000
2372.13425	-0.00000
2370.20568	-0.00000
2368.27712	-0.00001
2366.34855	-0.00002
2364.41999	-0.00002
2362.49143	-0.00002
2360.56286	-0.00002
2358.63430	-0.00001
2356.70573	-0.00001
2354.77717	-0.00000
2352.84860	0.00000
2350.92004	-0.00000
2348.99147	-0.00000
2347.06291	-0.00000
2345.13435	-0.00001
2343.20578	-0.00002
2341.27722	-0.00002
2339.34865	-0.00002
2337.42009	-0.00002
2335.49152	-0.00003
2333.56296	-0.00003
2331.63440	-0.00003
2329.70583	-0.00002
2327.77727	-0.00002
2325.84870	-0.00002
2323.92014	-0.00001
2321.99157	-0.00001
2320.06301	-0.00001
2318.13444	-0.00002
2316.20588	-0.00002
2314.27732	-0.00003
2312.34875	-0.00004
2310.42019	-0.00003
2308.49162	-0.00003
2306.56306	-0.00002
2304.63449	-0.00002
2302.70593	-0.00002
2300.77736	-0.00003
2298.84880	-0.00002
2296.92024	-0.00002
2294.99167	-0.00002
2293.06311	-0.00002
2291.13454	-0.00002
2289.20598	-0.00002
2287.27741	-0.00001
2285.34885	-0.00001
2283.42028	-0.00001
2281.49172	-0.00001
2279.56316	-0.00001
2277.63459	-0.00001
2275.70603	-0.00002
2273.77746	-0.00002
2271.84890	-0.00002
2269.92033	-0.00001
2267.99177	-0.00001
2266.06320	-0.00001
2264.13464	-0.00002
2262.20608	-0.00002
2260.27751	-0.00002
2258.34895	-0.00003
2256.42038	-0.00003
2254.49182	-0.00003
2252.56325	-0.00003
2250.63469	-0.00003
2248.70612	-0.00003
2246.77756	-0.00003
2244.84900	-0.00003
2242.92043	-0.00002
2240.99187	-0.00002
2239.06330	-0.00003
2237.13474	-0.00004
2235.20617	-0.00004
2233.27761	-0.00003
2231.34904	-0.00003
2229.42048	-0.00002
2227.49192	-0.00002
2225.56335	-0.00001
2223.63479	-0.00001
2221.70622	-0.00001
2219.77766	-0.00001
2217.84909	-0.00001
2215.92053	-0.00001
2213.99196	-0.00001
2212.06340	-0.00001
2210.13484	-0.00001
2208.20627	-0.00000
2206.27771	0.00001
2204.34914	0.00002
2202.42058	0.00005
2200.49201	0.00010
2198.56345	0.00017
2196.63488	0.00024
2194.70632	0.00028
2192.77776	0.00025
2190.84919	0.00017
2188.92063	0.00009
2186.99206	0.00004
2185.06350	0.00001
2183.13493	-0.00001
2181.20637	-0.00002
2179.27781	-0.00002
2177.34924	-0.00002
2175.42068	-0.00002
2173.49211	-0.00002
2171.56355	-0.00003
2169.63498	-0.00003
2167.70642	-0.00004
2165.77785	-0.00004
2163.84929	-0.00003
2161.92073	-0.00002
2159.99216	-0.00002
2158.06360	-0.00002
2156.13503	-0.00002
2154.20647	-0.00002
2152.27790	-0.00003
2150.34934	-0.00004
2148.42077	-0.00004
2146.49221	-0.00004
2144.56365	-0.00004
2142.63508	-0.00004
2140.70652	-0.00004
2138.77795	-0.00004
2136.84939	-0.00003
2134.92082	-0.00002
2132.99226	-0.00002
2131.06369	-0.00003
2129.13513	-0.00004
2127.20657	-0.00004
2125.27800	-0.00004
2123.34944	-0.00004
2121.42087	-0.00003
2119.49231	-0.00003
2117.56374	-0.00003
2115.63518	-0.00002
2113.70661	-0.00003
2111.77805	-0.00003
2109.84949	-0.00003
2107.92092	-0.00003
2105.99236	-0.00002
2104.06379	-0.00002
2102.13523	-0.00002
2100.20666	-0.00002
2098.27810	-0.00002
2096.34953	-0.00003
2094.42097	-0.00003
2092.49241	-0.00003
2090.56384	-0.00002
2088.63528	-0.00002
2086.70671	-0.00002
2084.77815	-0.00002
2082.84958	-0.00002
2080.92102	-0.00002
2078.99245	-0.00001
2077.06389	-0.00001
2075.13533	-0.00002
2073.20676	-0.00003
2071.27820	-0.00002
2069.34963	-0.00002
2067.42107	-0.00002
2065.49250	-0.00002
2063.56394	-0.00002
2061.63537	-0.00002
2059.70681	-0.00002
2057.77825	-0.00002
2055.84968	-0.00002
2053.92112	-0.00001
2051.99255	-0.00002
2050.06399	-0.00003
2048.13542	-0.00003
2046.20686	-0.00003
2044.27830	-0.00004
2042.34973	-0.00003
2040.42117	-0.00002
2038.49260	-0.00002
2036.56404	-0.00001
2034.63547	-0.00001
2032.70691	-0.00002
2030.77834	-0.00002
2028.84978	-0.00001
2026.92122	-0.00000
2024.99265	-0.00000
2023.06409	0.00000
2021.13552	-0.00001
2019.20696	-0.00003
2017.27839	-0.00006
2015.34983	-0.00007
2013.42126	-0.00006
2011.49270	-0.00006
2009.56414	-0.00005
2007.63557	-0.00002
2005.70701	0.00001
2003.77844	-0.00001
2001.84988	-0.00001
1999.92131	-0.00000
1997.99275	-0.00004
1996.06418	-0.00005
1994.13562	0.00003
1992.20706	0.00007
1990.27849	-0.00001
1988.34993	-0.00010
1986.42136	-0.00010
1984.49280	-0.00004
1982.56423	0.00001
1980.63567	0.00002
1978.70710	0.00003
1976.77854	0.00001
1974.84998	-0.00002
1972.92141	-0.00003
1970.99285	-0.00003
1969.06428	-0.00003
1967.13572	-0.00003
1965.20715	-0.00004
1963.27859	-0.00004
1961.35002	-0.00003
1959.42146	-0.00001
1957.49290	0.00001
1955.56433	0.00000
1953.63577	-0.00001
1951.70720	-0.00002
1949.77864	-0.00002
1947.85007	-0.00001
1945.92151	-0.00002
1943.99294	-0.00003
1942.06438	-0.00003
1940.13582	-0.00001
1938.20725	-0.00000
1936.27869	0.00001
1934.35012	0.00001
1932.42156	0.00001
1930.49299	0.00001
1928.56443	0.00001
1926.63586	-0.00000
1924.70730	-0.00002
1922.77874	-0.00002
1920.85017	-0.00003
1918.92161	-0.00003
1916.99304	-0.00003
1915.06448	-0.00002
1913.13591	-0.00002
1911.20735	-0.00002
1909.27878	-0.00003
1907.35022	-0.00002
1905.42166	-0.00001
1903.49309	-0.00000
1901.56453	0.00000
1899.63596	0.00000
1897.70740	-0.00001
1895.77883	-0.00002
1893.85027	-0.00002
1891.92171	-0.00001
1889.99314	-0.00001
1888.06458	-0.00000
1886.13601	0.00000
1884.20745	0.00001
1882.27888	0.00001
1880.35032	0.00001
1878.42175	0.00001
1876.49319	0.00001
1874.56463	0.00001
1872.63606	-0.00001
1870.70750	-0.00003
1868.77893	-0.00005
1866.85037	-0.00003
1864.92180	-0.00001
1862.99324	-0.00001
1861.06467	-0.00001
1859.13611	-0.00002
1857.20755	-0.00001
1855.27898	-0.00002
1853.35042	-0.00001
1851.42185	-0.00001
1849.49329	-0.00002
1847.56472	-0.00005
1845.63616	-0.00009
1843.70759	-0.00009
1841.77903	-0.00005
1839.85047	-0.00002
1837.92190	-0.00001
1835.99334	-0.00001
1834.06477	-0.00002
1832.13621	-0.00005
1830.20764	-0.00007
1828.27908	-0.00007
1826.35051	-0.00006
1824.42195	-0.00005
1822.49339	-0.00003
1820.56482	-0.00002
1818.63626	-0.00002
1816.70769	-0.00002
1814.77913	-0.00002
1812.85056	-0.00003
1810.92200	-0.00004
1808.99343	-0.00003
1807.06487	-0.00003
1805.13631	-0.00004
1803.20774	-0.00007
1801.27918	-0.00010
1799.35061	-0.00011
1797.42205	-0.00012
1795.49348	-0.00016
1793.56492	-0.00024
1791.63635	-0.00025
1789.70779	-0.00019
1787.77923	-0.00014
1785.85066	-0.00012
1783.92210	-0.00011
1781.99353	-0.00009
1780.06497	-0.00008
1778.13640	-0.00007
1776.20784	-0.00009
1774.27927	-0.00016
1772.35071	-0.00021
1770.42215	-0.00019
1768.49358	-0.00015
1766.56502	-0.00012
1764.63645	-0.00013
1762.70789	-0.00017
1760.77932	-0.00020
1758.85076	-0.00020
1756.92220	-0.00021
1754.99363	-0.00021
1753.06507	-0.00025
1751.13650	-0.00030
1749.20794	-0.00030
1747.27937	-0.00027
1745.35081	-0.00027
1743.42224	-0.00031
1741.49368	-0.00041
1739.56512	-0.00055
1737.63655	-0.00081
1735.70799	-0.00126
1733.77942	-0.00177
1731.85086	-0.00212
1729.92229	-0.00233
1727.99373	-0.00245
1726.06516	-0.00246
1724.13660	-0.00236
1722.20804	-0.00222
1720.27947	-0.00213
1718.35091	-0.00206
1716.42234	-0.00190
1714.49378	-0.00165
1712.56521	-0.00142
1710.63665	-0.00126
1708.70808	-0.00116
1706.77952	-0.00108
1704.85096	-0.00101
1702.92239	-0.00102
1700.99383	-0.00108
1699.06526	-0.00106
1697.13670	-0.00098
1695.20813	-0.00086
1693.27957	-0.00069
1691.35100	-0.00059
1689.42244	-0.00058
1687.49388	-0.00067
1685.56531	-0.00080
1683.63675	-0.00081
1681.70818	-0.00071
1679.77962	-0.00065
1677.85105	-0.00070
1675.92249	-0.00079
1673.99392	-0.00084
1672.06536	-0.00089
1670.13680	-0.00094
1668.20823	-0.00094
1666.27967	-0.00091
1664.35110	-0.00091
1662.42254	-0.00090
1660.49397	-0.00084
1658.56541	-0.00079
1656.63684	-0.00085
1654.70828	-0.00103
1652.77972	-0.00107
1650.85115	-0.00088
1648.92259	-0.00074
1646.99402	-0.00071
1645.06546	-0.00063
1643.13689	-0.00050
1641.20833	-0.00042
1639.27976	-0.00044
1637.35120	-0.00051
1635.42264	-0.00053
1633.49407	-0.00044
1631.56551	-0.00035
1629.63694	-0.00034
1627.70838	-0.00038
1625.77981	-0.00041
1623.85125	-0.00043
1621.92269	-0.00039
1619.99412	-0.00038
1618.06556	-0.00041
1616.13699	-0.00039
1614.20843	-0.00027
1612.27986	-0.00018
1610.35130	-0.00015
1608.42273	-0.00013
1606.49417	-0.00010
1604.56561	-0.00008
1602.63704	-0.00006
1600.70848	-0.00004
1598.77991	-0.00003
1596.85135	-0.00002
1594.92278	-0.00002
1592.99422	-0.00001
1591.06565	-0.00001
1589.13709	0.00000
1587.20853	0.00001
1585.27996	0.00002
1583.35140	0.00002
1581.42283	0.00001
1579.49427	-0.00004
1577.56570	-0.00013
1575.63714	-0.00015
1573.70857	-0.00007
1571.78001	-0.00004
1569.85145	-0.00005
1567.92288	-0.00002
1565.99432	0.00001
1564.06575	-0.00003
1562.13719	-0.00019
1560.20862	-0.00040
1558.28006	-0.00042
1556.35149	-0.00026
1554.42293	-0.00011
1552.49437	-0.00005
1550.56580	-0.00002
1548.63724	-0.00000
1546.70867	-0.00003
1544.78011	-0.00011
1542.85154	-0.00025
1540.92298	-0.00036
1538.99441	-0.00032
1537.06585	-0.00016
1535.13729	-0.00008
1533.20872	-0.00007
1531.28016	-0.00003
1529.35159	-0.00002
1527.42303	-0.00005
1525.49446	-0.00010
1523.56590	-0.00017
1521.63733	-0.00022
1519.70877	-0.00017
1517.78021	-0.00009
1515.85164	-0.00003
1513.92308	0.00000
1511.99451	-0.00001
1510.06595	-0.00009
1508.13738	-0.00022
1506.20882	-0.00025
1504.28025	-0.00011
1502.35169	0.00001
1500.42313	0.00001
1498.49456	-0.00005
1496.56600	-0.00007
1494.63743	-0.00002
1492.70887	0.00001
1490.78030	-0.00002
1488.85174	-0.00003
1486.92317	-0.00001
1484.99461	0.00003
1483.06605	0.00005
1481.13748	0.00004
1479.20892	0.00002
1477.28035	-0.00003
1475.35179	-0.00011
1473.42322	-0.00018
1471.49466	-0.00016
1469.56610	-0.00010
1467.63753	-0.00009
1465.70897	-0.00013
1463.78040	-0.00015
1461.85184	-0.00017
1459.92327	-0.00029
1457.99471	-0.00044
1456.06614	-0.00047
1454.13758	-0.00039
1452.20902	-0.00034
1450.28045	-0.00037
1448.35189	-0.00043
1446.42332	-0.00046
1444.49476	-0.00049
1442.56619	-0.00052
1440.63763	-0.00058
1438.70906	-0.00069
1436.78050	-0.00076
1434.85194	-0.00073
1432.92337	-0.00066
1430.99481	-0.00064
1429.06624	-0.00062
1427.13768	-0.00059
1425.20911	-0.00057
1423.28055	-0.00058
1421.35198	-0.00062
1419.42342	-0.00065
1417.49486	-0.00061
1415.56629	-0.00054
1413.63773	-0.00050
1411.70916	-0.00048
1409.78060	-0.00046
1407.85203	-0.00044
1405.92347	-0.00042
1403.99490	-0.00039
1402.06634	-0.00038
1400.13778	-0.00038
1398.20921	-0.00038
1396.28065	-0.00037
1394.35208	-0.00034
1392.42352	-0.00028
1390.49495	-0.00023
1388.56639	-0.00021
1386.63782	-0.00017
1384.70926	-0.00012
1382.78070	-0.00008
1380.85213	-0.00006
1378.92357	-0.00005
1376.99500	-0.00007
1375.06644	-0.00010
1373.13787	-0.00013
1371.20931	-0.00015
1369.28074	-0.00017
1367.35218	-0.00020
1365.42362	-0.00023
1363.49505	-0.00026
1361.56649	-0.00027
1359.63792	-0.00025
1357.70936	-0.00021
1355.78079	-0.00018
1353.85223	-0.00014
1351.92366	-0.00011
1349.99510	-0.00008
1348.06654	-0.00005
1346.13797	-0.00003
1344.20941	-0.00002
1342.28084	-0.00003
1340.35228	-0.00003
1338.42371	-0.00003
1336.49515	-0.00001
1334.56659	0.00000
1332.63802	-0.00000
1330.70946	-0.00002
1328.78089	-0.00004
1326.85233	-0.00007
1324.92376	-0.00012
1322.99520	-0.00018
1321.06663	-0.00028
1319.13807	-0.00042
1317.20951	-0.00061
1315.28094	-0.00084
1313.35238	-0.00105
1311.42381	-0.00118
1309.49525	-0.00124
1307.56668	-0.00123
1305.63812	-0.00118
1303.70955	-0.00110
1301.78099	-0.00099
1299.85243	-0.00086
1297.92386	-0.00074
1295.99530	-0.00065
1294.06673	-0.00060
1292.13817	-0.00058
1290.20960	-0.00057
1288.28104	-0.00058
1286.35247	-0.00059
1284.42391	-0.00058
1282.49535	-0.00056
1280.56678	-0.00053
1278.63822	-0.00051
1276.70965	-0.00048
1274.78109	-0.00046
1272.85252	-0.00045
1270.92396	-0.00043
1268.99539	-0.00041
1267.06683	-0.00039
1265.13827	-0.00036
1263.20970	-0.00033
1261.28114	-0.00030
1259.35257	-0.00028
1257.42401	-0.00025
1255.49544	-0.00022
1253.56688	-0.00021
1251.63831	-0.00019
1249.70975	-0.00018
1247.78119	-0.00017
1245.85262	-0.00016
1243.92406	-0.00015
1241.99549	-0.00014
1240.06693	-0.00013
1238.13836	-0.00013
1236.20980	-0.00011
1234.28123	-0.00010
1232.35267	-0.00009
1230.42411	-0.00008
1228.49554	-0.00007
1226.56698	-0.00006
1224.63841	-0.00005
1222.70985	-0.00004
1220.78128	-0.00003
1218.85272	-0.00004
1216.92415	-0.00005
1214.99559	-0.00005
1213.06703	-0.00004
1211.13846	-0.00004
1209.20990	-0.00004
1207.28133	-0.00003
1205.35277	-0.00002
1203.42420	-0.00002
1201.49564	-0.00002
1199.56708	-0.00001
1197.63851	-0.00001
1195.70995	-0.00002
1193.78138	-0.00001
1191.85282	-0.00001
1189.92425	-0.00001
1187.99569	-0.00002
1186.06712	-0.00003
1184.13856	-0.00005
1182.21000	-0.00004
1180.28143	-0.00001
1178.35287	0.00000
1176.42430	-0.00000
1174.49574	-0.00001
1172.56717	-0.00001
1170.63861	-0.00001
1168.71004	-0.00000
1166.78148	0.00000
1164.85292	0.00000
1162.92435	-0.00000
1160.99579	-0.00000
1159.06722	-0.00001
1157.13866	-0.00000
1155.21009	0.00001
1153.28153	0.00001
1151.35296	0.00001
1149.42440	0.00001
1147.49584	0.00000
1145.56727	-0.00001
1143.63871	-0.00001
1141.71014	0.00000
1139.78158	0.00002
1137.85301	0.00002
1135.92445	0.00001
1133.99588	-0.00000
1132.06732	-0.00001
1130.13876	-0.00001
1128.21019	-0.00001
1126.28163	-0.00001
1124.35306	-0.00001
1122.42450	-0.00001
1120.49593	-0.00001
1118.56737	-0.00002
1116.63880	-0.00001
1114.71024	-0.00000
1112.78168	-0.00001
1110.85311	-0.00002
1108.92455	-0.00001
1106.99598	-0.00001
1105.06742	-0.00000
1103.13885	0.00001
1101.21029	0.00001
1099.28172	0.00001
1097.35316	0.00001
1095.42460	0.00002
1093.49603	0.00001
1091.56747	0.00001
1089.63890	0.00001
1087.71034	0.00001
1085.78177	0.00001
1083.85321	0.00002
1081.92464	0.00002
1079.99608	0.00002
1078.06752	0.00002
1076.13895	0.00001
1074.21039	0.00000
1072.28182	0.00001
1070.35326	0.00002
1068.42469	0.00002
1066.49613	0.00000
1064.56756	-0.00002
1062.63900	-0.00005
1060.71044	-0.00009
1058.78187	-0.00016
1056.85331	-0.00026
1054.92474	-0.00035
1052.99618	-0.00042
1051.06761	-0.00046
1049.13905	-0.00046
1047.21049	-0.00040
1045.28192	-0.00031
1043.35336	-0.00021
1041.42479	-0.00014
1039.49623	-0.00009
1037.56766	-0.00006
1035.63910	-0.00003
1033.71053	-0.00003
1031.78197	-0.00006
1029.85341	-0.00010
1027.92484	-0.00014
1025.99628	-0.00018
1024.06771	-0.00024
1022.13915	-0.00029
1020.21058	-0.00031
1018.28202	-0.00029
1016.35345	-0.00026
1014.42489	-0.00021
1012.49633	-0.00015
1010.56776	-0.00009
1008.63920	-0.00005
1006.71063	-0.00002
1004.78207	-0.00000
1002.85350	-0.00000
1000.92494	-0.00002
998.99637	-0.00003
997.06781	-0.00005
995.13925	-0.00008
993.21068	-0.00010
991.28212	-0.00014
989.35355	-0.00018
987.42499	-0.00023
985.49642	-0.00031
983.56786	-0.00041
981.63929	-0.00051
979.71073	-0.00061
977.78217	-0.00072
975.85360	-0.00082
973.92504	-0.00093
971.99647	-0.00105
970.06791	-0.00115
968.13934	-0.00123
966.21078	-0.00127
964.28221	-0.00129
962.35365	-0.00128
960.42509	-0.00127
958.49652	-0.00123
956.56796	-0.00119
954.63939	-0.00113
952.71083	-0.00103
950.78226	-0.00092
948.85370	-0.00082
946.92513	-0.00072
944.99657	-0.00062
943.06801	-0.00053
941.13944	-0.00044
939.21088	-0.00037
937.28231	-0.00030
935.35375	-0.00024
933.42518	-0.00019
931.49662	-0.00016
929.56805	-0.00013
927.63949	-0.00010
925.71093	-0.00008
923.78236	-0.00006
921.85380	-0.00004
919.92523	-0.00003
917.99667	-0.00002
916.06810	-0.00002
914.13954	-0.00003
912.21098	-0.00003
910.28241	-0.00003
908.35385	-0.00003
906.42528	-0.00003
904.49672	-0.00003
902.56815	-0.00001
900.63959	-0.00001
898.71102	-0.00002
896.78246	-0.00001
894.85390	0.00000
892.92533	-0.00000
890.99677	-0.00001
889.06820	-0.00001
887.13964	-0.00002
885.21107	-0.00002
883.28251	-0.00002
881.35394	-0.00002
879.42538	-0.00005
877.49682	-0.00007
875.56825	-0.00007
873.63969	-0.00006
871.71112	-0.00005
869.78256	-0.00003
867.85399	-0.00002
865.92543	-0.00002
863.99686	-0.00003
862.06830	-0.00003
860.13974	-0.00003
858.21117	-0.00002
856.28261	0.00000
854.35404	0.00000
852.42548	0.00000
850.49691	0.00004
848.56835	0.00007
846.63978	0.00006
844.71122	0.00002
842.78266	0.00001
840.85409	0.00002
838.92553	0.00003
836.99696	0.00003
835.06840	0.00003
833.13983	0.00001
831.21127	-0.00001
829.28270	-0.00003
827.35414	-0.00001
825.42558	0.00001
823.49701	0.00000
821.56845	-0.00001
819.63988	0.00001
817.71132	0.00004
815.78275	0.00003
813.85419	-0.00003
811.92562	-0.00007
809.99706	-0.00005
808.06850	-0.00003
806.13993	-0.00002
804.21137	-0.00003
802.28280	-0.00004
800.35424	-0.00005
798.42567	-0.00006
796.49711	-0.00008
794.56854	-0.00008
792.63998	-0.00009
790.71142	-0.00009
788.78285	-0.00009
786.85429	-0.00010
784.92572	-0.00013
782.99716	-0.00014
781.06859	-0.00014
779.14003	-0.00014
777.21147	-0.00016
775.28290	-0.00017
773.35434	-0.00015
771.42577	-0.00013
769.49721	-0.00013
767.56864	-0.00014
765.64008	-0.00011
763.71151	-0.00006
761.78295	-0.00003
759.85439	-0.00003
757.92582	-0.00003
755.99726	-0.00003
754.06869	-0.00001
752.14013	0.00001
750.21156	0.00005
748.28300	0.00017
