3997.9	0.0000429
3996.0	0.0000413
3994.1	0.0000333
3992.1	0.0000301
3990.2	0.0000365
3988.3	0.0000373
3986.3	0.0000202
3984.4	0.0000030
3982.5	0.0000030
3980.6	0.0000093
3978.6	0.0000079
3976.7	0.0000039
3974.8	0.0000115
3972.8	0.0000284
3970.9	0.0000359
3969.0	0.0000301
3967.1	0.0000220
3965.1	0.0000156
3963.2	0.0000178
3961.3	0.0000293
3959.3	0.0000380
3957.4	0.0000397
3955.5	0.0000355
3953.6	0.0000258
3951.6	0.0000125
3949.7	0.0000008
3947.8	-0.0000032
3945.8	0.0000052
3943.9	0.0000221
3942.0	0.0000357
3940.1	0.0000391
3938.1	0.0000333
3936.2	0.0000253
3934.3	0.0000249
3932.3	0.0000275
3930.4	0.0000212
3928.5	0.0000117
3926.6	0.0000067
3924.6	0.0000037
3922.7	0.0000025
3920.8	0.0000099
3918.8	0.0000220
3916.9	0.0000244
3915.0	0.0000146
3913.1	0.0000034
3911.1	-0.0000018
3909.2	0.0000082
3907.3	0.0000324
3905.3	0.0000504
3903.4	0.0000598
3901.5	0.0000665
3899.6	0.0000538
3897.6	0.0000195
3895.7	-0.0000033
3893.8	0.0000119
3891.8	0.0000457
3889.9	0.0000620
3888.0	0.0000673
3886.1	0.0000707
3884.1	0.0000646
3882.2	0.0000631
3880.3	0.0000542
3878.3	0.0000264
3876.4	0.0000152
3874.5	0.0000258
3872.6	0.0000397
3870.6	0.0000503
3868.7	0.0000451
3866.8	0.0000382
3864.8	0.0000458
3862.9	0.0000494
3861.0	0.0000366
3859.1	0.0000348
3857.1	0.0000928
3855.2	0.0001934
3853.3	0.0002224
3851.3	0.0001399
3849.4	0.0000441
3847.5	0.0000094
3845.6	0.0000186
3843.6	0.0000278
3841.7	0.0000354
3839.8	0.0000604
3837.8	0.0000815
3835.9	0.0000830
3834.0	0.0000820
3832.1	0.0000734
3830.1	0.0000460
3828.2	0.0000241
3826.3	0.0000277
3824.3	0.0000535
3822.4	0.0000800
3820.5	0.0000839
3818.6	0.0000890
3816.6	0.0000950
3814.7	0.0000575
3812.8	0.0000083
3810.8	0.0000030
3808.9	0.0000260
3807.0	0.0000407
3805.1	0.0000496
3803.1	0.0000650
3801.2	0.0000618
3799.3	0.0000333
3797.3	0.0000152
3795.4	0.0000135
3793.5	0.0000124
3791.6	0.0000139
3789.6	0.0000170
3787.7	0.0000130
3785.8	0.0000089
3783.8	0.0000124
3781.9	0.0000171
3780.0	0.0000146
3778.1	0.0000062
3776.1	-0.0000015
3774.2	-0.0000034
3772.3	0.0000053
3770.3	0.0000154
3768.4	0.0000147
3766.5	0.0000134
3764.6	0.0000206
3762.6	0.0000303
3760.7	0.0000372
3758.8	0.0000366
3756.8	0.0000369
3754.9	0.0000671
3753.0	0.0001295
3751.1	0.0001748
3749.1	0.0001710
3747.2	0.0001638
3745.3	0.0001727
3743.3	0.0001346
3741.4	0.0000612
3739.5	0.0000349
3737.6	0.0000592
3735.6	0.0000928
3733.7	0.0001112
3731.8	0.0000932
3729.8	0.0000580
3727.9	0.0000481
3726.0	0.0000472
3724.1	0.0000244
3722.1	0.0000001
3720.2	-0.0000057
3718.3	0.0000005
3716.3	0.0000142
3714.4	0.0000438
3712.5	0.0000763
3710.6	0.0000718
3708.6	0.0000317
3706.7	-0.0000019
3704.8	-0.0000064
3702.8	0.0000016
3700.9	-0.0000019
3699.0	-0.0000162
3697.1	-0.0000262
3695.1	-0.0000219
3693.2	0.0000022
3691.3	0.0000600
3689.3	0.0001185
3687.4	0.0001033
3685.5	0.0000385
3683.6	0.0000058
3681.6	0.0000113
3679.7	0.0000268
3677.8	0.0000531
3675.8	0.0000767
3673.9	0.0000938
3672.0	0.0001243
3670.1	0.0001213
3668.1	0.0000580
3666.2	0.0000006
3664.3	-0.0000231
3662.3	-0.0000290
3660.4	-0.0000148
3658.5	0.0000195
3656.6	0.0000442
3654.6	0.0000471
3652.7	0.0000665
3650.8	0.0000937
3648.8	0.0000786
3646.9	0.0000314
3645.0	-0.0000012
3643.1	-0.0000023
3641.1	0.0000071
3639.2	0.0000058
3637.3	-0.0000010
3635.3	-0.0000009
3633.4	0.0000167
3631.5	0.0000582
3629.6	0.0000866
3627.6	0.0000620
3625.7	0.0000224
3623.8	0.0000126
3621.8	0.0000312
3619.9	0.0000517
3618.0	0.0000487
3616.1	0.0000390
3614.1	0.0000412
3612.2	0.0000480
3610.3	0.0000556
3608.3	0.0000461
3606.4	0.0000146
3604.5	-0.0000057
3602.6	-0.0000006
3600.6	0.0000083
3598.7	0.0000072
3596.8	0.0000066
3594.8	0.0000126
3592.9	0.0000130
3591.0	0.0000082
3589.1	0.0000154
3587.1	0.0000256
3585.2	0.0000170
3583.3	0.0000033
3581.3	0.0000042
3579.4	0.0000149
3577.5	0.0000236
3575.6	0.0000201
3573.6	0.0000086
3571.7	0.0000046
3569.8	0.0000111
3567.8	0.0000201
3565.9	0.0000219
3564.0	0.0000143
3562.1	0.0000044
3560.1	-0.0000007
3558.2	0.0000001
3556.3	0.0000030
3554.3	0.0000052
3552.4	0.0000056
3550.5	0.0000036
3548.6	0.0000085
3546.6	0.0000278
3544.7	0.0000401
3542.8	0.0000260
3540.8	0.0000048
3538.9	-0.0000027
3537.0	0.0000003
3535.1	0.0000069
3533.1	0.0000087
3531.2	0.0000010
3529.3	-0.0000078
3527.3	-0.0000067
3525.4	0.0000057
3523.5	0.0000204
3521.6	0.0000272
3519.6	0.0000262
3517.7	0.0000211
3515.8	0.0000094
3513.8	-0.0000049
3511.9	-0.0000104
3510.0	-0.0000085
3508.1	-0.0000077
3506.1	-0.0000043
3504.2	0.0000022
3502.3	0.0000031
3500.3	-0.0000016
3498.4	-0.0000021
3496.5	0.0000027
3494.6	0.0000018
3492.6	-0.0000068
3490.7	-0.0000138
3488.8	-0.0000160
3486.8	-0.0000152
3484.9	-0.0000101
3483.0	-0.0000006
3481.1	0.0000083
3479.1	0.0000127
3477.2	0.0000116
3475.3	0.0000057
3473.3	0.0000006
3471.4	0.0000050
3469.5	0.0000174
3467.6	0.0000220
3465.6	0.0000145
3463.7	0.0000049
3461.8	-0.0000019
3459.8	-0.0000054
3457.9	-0.0000035
3456.0	0.0000013
3454.1	0.0000019
3452.1	0.0000002
3450.2	0.0000038
3448.3	0.0000040
3446.3	-0.0000051
3444.4	-0.0000080
3442.5	0.0000049
3440.6	0.0000200
3438.6	0.0000238
3436.7	0.0000160
3434.8	0.0000031
3432.8	-0.0000018
3430.9	0.0000079
3429.0	0.0000163
3427.1	0.0000083
3425.1	-0.0000042
3423.2	-0.0000043
3421.3	0.0000085
3419.3	0.0000201
3417.4	0.0000181
3415.5	0.0000141
3413.6	0.0000196
3411.6	0.0000237
3409.7	0.0000202
3407.8	0.0000165
3405.8	0.0000154
3403.9	0.0000156
3402.0	0.0000154
3400.1	0.0000104
3398.1	0.0000005
3396.2	-0.0000046
3394.3	0.0000012
3392.3	0.0000109
3390.4	0.0000142
3388.5	0.0000092
3386.6	0.0000008
3384.6	-0.0000009
3382.7	0.0000071
3380.8	0.0000158
3378.8	0.0000219
3376.9	0.0000220
3375.0	0.0000174
3373.1	0.0000196
3371.1	0.0000260
3369.2	0.0000283
3367.3	0.0000310
3365.3	0.0000372
3363.4	0.0000409
3361.5	0.0000365
3359.6	0.0000316
3357.6	0.0000316
3355.7	0.0000273
3353.8	0.0000204
3351.8	0.0000155
3349.9	0.0000069
3348.0	0.0000029
3346.1	0.0000125
3344.1	0.0000234
3342.2	0.0000297
3340.3	0.0000368
3338.3	0.0000386
3336.4	0.0000327
3334.5	0.0000258
3332.6	0.0000179
3330.6	0.0000099
3328.7	0.0000065
3326.8	0.0000070
3324.8	0.0000083
3322.9	0.0000091
3321.0	0.0000116
3319.1	0.0000182
3317.1	0.0000243
3315.2	0.0000236
3313.3	0.0000199
3311.3	0.0000207
3309.4	0.0000238
3307.5	0.0000231
3305.6	0.0000203
3303.6	0.0000215
3301.7	0.0000257
3299.8	0.0000256
3297.8	0.0000241
3295.9	0.0000306
3294.0	0.0000428
3292.1	0.0000495
3290.1	0.0000448
3288.2	0.0000360
3286.3	0.0000342
3284.3	0.0000368
3282.4	0.0000383
3280.5	0.0000459
3278.6	0.0000598
3276.6	0.0000655
3274.7	0.0000600
3272.8	0.0000567
3270.8	0.0000593
3268.9	0.0000570
3267.0	0.0000464
3265.1	0.0000367
3263.1	0.0000363
3261.2	0.0000407
3259.3	0.0000401
3257.3	0.0000349
3255.4	0.0000331
3253.5	0.0000344
3251.6	0.0000350
3249.6	0.0000383
3247.7	0.0000449
3245.8	0.0000508
3243.8	0.0000505
3241.9	0.0000436
3240.0	0.0000424
3238.1	0.0000506
3236.1	0.0000532
3234.2	0.0000456
3232.3	0.0000445
3230.3	0.0000580
3228.4	0.0000708
3226.5	0.0000682
3224.6	0.0000546
3222.6	0.0000477
3220.7	0.0000543
3218.8	0.0000619
3216.8	0.0000634
3214.9	0.0000650
3213.0	0.0000697
3211.1	0.0000672
3209.1	0.0000565
3207.2	0.0000500
3205.3	0.0000517
3203.3	0.0000580
3201.4	0.0000607
3199.5	0.0000513
3197.6	0.0000388
3195.6	0.0000396
3193.7	0.0000464
3191.8	0.0000449
3189.8	0.0000398
3187.9	0.0000391
3186.0	0.0000434
3184.1	0.0000497
3182.1	0.0000496
3180.2	0.0000402
3178.3	0.0000324
3176.3	0.0000350
3174.4	0.0000401
3172.5	0.0000374
3170.6	0.0000311
3168.6	0.0000318
3166.7	0.0000402
3164.8	0.0000510
3162.8	0.0000592
3160.9	0.0000608
3159.0	0.0000543
3157.1	0.0000448
3155.1	0.0000373
3153.2	0.0000348
3151.3	0.0000367
3149.3	0.0000403
3147.4	0.0000429
3145.5	0.0000432
3143.6	0.0000439
3141.6	0.0000459
3139.7	0.0000404
3137.8	0.0000297
3135.8	0.0000273
3133.9	0.0000328
3132.0	0.0000354
3130.1	0.0000310
3128.1	0.0000249
3126.2	0.0000255
3124.3	0.0000312
3122.3	0.0000341
3120.4	0.0000339
3118.5	0.0000327
3116.6	0.0000281
3114.6	0.0000227
3112.7	0.0000195
3110.8	0.0000177
3108.8	0.0000155
3106.9	0.0000093
3105.0	0.0000011
3103.1	-0.0000038
3101.1	-0.0000019
3099.2	0.0000041
3097.3	0.0000012
3095.3	-0.0000086
3093.4	-0.0000084
3091.5	0.0000009
3089.6	0.0000066
3087.6	0.0000046
3085.7	0.0000001
3083.8	0.0000026
3081.8	0.0000135
3079.9	0.0000168
3078.0	0.0000041
3076.1	-0.0000059
3074.1	-0.0000043
3072.2	-0.0000050
3070.3	-0.0000083
3068.3	-0.0000069
3066.4	-0.0000045
3064.5	-0.0000040
3062.6	-0.0000031
3060.6	-0.0000031
3058.7	-0.0000063
3056.8	-0.0000090
3054.8	-0.0000079
3052.9	-0.0000029
3051.0	0.0000045
3049.1	0.0000119
3047.1	0.0000144
3045.2	0.0000079
3043.3	-0.0000048
3041.3	-0.0000170
3039.4	-0.0000234
3037.5	-0.0000177
3035.6	-0.0000040
3033.6	0.0000015
3031.7	-0.0000060
3029.8	-0.0000153
3027.8	-0.0000219
3025.9	-0.0000304
3024.0	-0.0000342
3022.1	-0.0000279
3020.1	-0.0000267
3018.2	-0.0000382
3016.3	-0.0000443
3014.3	-0.0000336
3012.4	-0.0000180
3010.5	-0.0000101
3008.6	-0.0000090
3006.6	-0.0000080
3004.7	-0.0000026
3002.8	0.0000009
3000.8	-0.0000043
2998.9	-0.0000121
2997.0	-0.0000162
2995.1	-0.0000164
2993.1	-0.0000157
2991.2	-0.0000163
2989.3	-0.0000149
2987.3	-0.0000112
2985.4	-0.0000092
2983.5	-0.0000056
2981.6	-0.0000019
2979.6	-0.0000048
2977.7	-0.0000091
2975.8	-0.0000054
2973.8	0.0000057
2971.9	0.0000142
2970.0	0.0000124
2968.1	0.0000055
2966.1	0.0000008
2964.2	-0.0000044
2962.3	-0.0000092
2960.3	-0.0000061
2958.4	0.0000022
2956.5	0.0000070
2954.6	0.0000079
2952.6	0.0000050
2950.7	-0.0000002
2948.8	0.0000011
2946.8	0.0000044
2944.9	0.0000001
2943.0	-0.0000050
2941.1	-0.0000045
2939.1	-0.0000035
2937.2	-0.0000031
2935.3	0.0000005
2933.3	0.0000041
2931.4	0.0000030
2929.5	-0.0000025
2927.6	-0.0000089
2925.6	-0.0000113
2923.7	-0.0000101
2921.8	-0.0000075
2919.8	-0.0000029
2917.9	0.0000019
2916.0	0.0000018
2914.1	-0.0000042
2912.1	-0.0000083
2910.2	-0.0000083
2908.3	-0.0000089
2906.3	-0.0000055
2904.4	0.0000007
2902.5	-0.0000011
2900.6	-0.0000067
2898.6	-0.0000058
2896.7	-0.0000042
2894.8	-0.0000068
2892.8	-0.0000046
2890.9	0.0000028
2889.0	0.0000055
2887.1	0.0000040
2885.1	0.0000034
2883.2	0.0000030
2881.3	0.0000029
2879.3	0.0000043
2877.4	0.0000062
2875.5	0.0000071
2873.6	0.0000068
2871.6	0.0000073
2869.7	0.0000070
2867.8	0.0000073
2865.8	0.0000119
2863.9	0.0000173
2862.0	0.0000208
2860.1	0.0000224
2858.1	0.0000186
2856.2	0.0000113
2854.3	0.0000110
2852.3	0.0000180
2850.4	0.0000202
2848.5	0.0000112
2846.6	-0.0000011
2844.6	-0.0000062
2842.7	-0.0000055
2840.8	-0.0000027
2838.8	0.0000028
2836.9	0.0000087
2835.0	0.0000116
2833.1	0.0000128
2831.1	0.0000121
2829.2	0.0000082
2827.3	0.0000044
2825.3	0.0000047
2823.4	0.0000065
2821.5	0.0000052
2819.6	0.0000001
2817.6	-0.0000053
2815.7	-0.0000069
2813.8	-0.0000037
2811.8	-0.0000005
2809.9	-0.0000022
2808.0	-0.0000048
2806.1	-0.0000051
2804.1	-0.0000045
2802.2	-0.0000017
2800.3	0.0000035
2798.3	0.0000083
2796.4	0.0000122
2794.5	0.0000145
2792.6	0.0000115
2790.6	0.0000048
2788.7	0.0000007
2786.8	-0.0000020
2784.8	-0.0000064
2782.9	-0.0000085
2781.0	-0.0000053
2779.1	-0.0000015
2777.1	-0.0000005
2775.2	0.0000019
2773.3	0.0000036
2771.3	0.0000018
2769.4	0.0000025
2767.5	0.0000042
2765.6	0.0000037
2763.6	0.0000070
2761.7	0.0000137
2759.8	0.0000142
2757.8	0.0000094
2755.9	0.0000050
2754.0	0.0000002
2752.1	-0.0000029
2750.1	-0.0000019
2748.2	0.0000006
2746.3	0.0000034
2744.3	0.0000055
2742.4	0.0000061
2740.5	0.0000065
2738.6	0.0000070
2736.6	0.0000062
2734.7	0.0000052
2732.8	0.0000045
2730.8	0.0000036
2728.9	0.0000054
2727.0	0.0000091
2725.1	0.0000075
2723.1	0.0000031
2721.2	0.0000053
2719.3	0.0000103
2717.3	0.0000089
2715.4	0.0000051
2713.5	0.0000052
2711.6	0.0000082
2709.6	0.0000111
2707.7	0.0000113
2705.8	0.0000088
2703.8	0.0000053
2701.9	0.0000026
2700.0	-0.0000011
2698.1	-0.0000075
2696.1	-0.0000122
2694.2	-0.0000118
2692.3	-0.0000058
2690.3	0.0000046
2688.4	0.0000138
2686.5	0.0000163
2684.6	0.0000113
2682.6	0.0000022
2680.7	-0.0000030
2678.8	0.0000021
2676.8	0.0000114
2674.9	0.0000176
2673.0	0.0000228
2671.1	0.0000268
2669.1	0.0000260
2667.2	0.0000211
2665.3	0.0000171
2663.3	0.0000203
2661.4	0.0000279
2659.5	0.0000278
2657.6	0.0000181
2655.6	0.0000111
2653.7	0.0000142
2651.8	0.0000209
2649.8	0.0000230
2647.9	0.0000172
2646.0	0.0000087
2644.1	0.0000071
2642.1	0.0000120
2640.2	0.0000182
2638.3	0.0000230
2636.3	0.0000219
2634.4	0.0000146
2632.5	0.0000073
2630.6	0.0000059
2628.6	0.0000106
2626.7	0.0000159
2624.8	0.0000156
2622.8	0.0000131
2620.9	0.0000129
2619.0	0.0000142
2617.1	0.0000167
2615.1	0.0000215
2613.2	0.0000262
2611.3	0.0000280
2609.3	0.0000262
2607.4	0.0000207
2605.5	0.0000159
2603.6	0.0000141
2601.6	0.0000107
2599.7	0.0000075
2597.8	0.0000106
2595.8	0.0000162
2593.9	0.0000198
2592.0	0.0000254
2590.1	0.0000322
2588.1	0.0000327
2586.2	0.0000259
2584.3	0.0000168
2582.3	0.0000079
2580.4	0.0000035
2578.5	0.0000070
2576.6	0.0000136
2574.6	0.0000175
2572.7	0.0000187
2570.8	0.0000178
2568.8	0.0000170
2566.9	0.0000201
2565.0	0.0000253
2563.1	0.0000240
2561.1	0.0000156
2559.2	0.0000105
2557.3	0.0000119
2555.3	0.0000142
2553.4	0.0000166
2551.5	0.0000213
2549.6	0.0000247
2547.6	0.0000240
2545.7	0.0000217
2543.8	0.0000199
2541.8	0.0000145
2539.9	0.0000096
2538.0	0.0000120
2536.1	0.0000147
2534.1	0.0000104
2532.2	0.0000070
2530.3	0.0000087
2528.3	0.0000119
2526.4	0.0000133
2524.5	0.0000129
2522.6	0.0000116
2520.6	0.0000091
2518.7	0.0000071
2516.8	0.0000103
2514.8	0.0000139
2512.9	0.0000106
2511.0	0.0000043
2509.1	0.0000006
2507.1	0.0000004
2505.2	0.0000025
2503.3	0.0000018
2501.3	-0.0000011
2499.4	-0.0000010
2497.5	0.0000022
2495.6	0.0000056
2493.6	0.0000091
2491.7	0.0000122
2489.8	0.0000123
2487.8	0.0000089
2485.9	0.0000019
2484.0	-0.0000042
2482.1	-0.0000058
2480.1	-0.0000030
2478.2	0.0000028
2476.3	0.0000064
2474.3	0.0000052
2472.4	0.0000004
2470.5	-0.0000046
2468.6	-0.0000045
2466.6	-0.0000022
2464.7	-0.0000062
2462.8	-0.0000092
2460.8	0.0000009
2458.9	0.0000134
2457.0	0.0000127
2455.1	0.0000054
2453.1	-0.0000001
2451.2	-0.0000056
2449.3	-0.0000085
2447.3	-0.0000060
2445.4	-0.0000059
2443.5	-0.0000089
2441.6	-0.0000084
2439.6	-0.0000064
2437.7	-0.0000061
2435.8	-0.0000083
2433.8	-0.0000089
2431.9	-0.0000041
2430.0	-0.0000005
2428.1	-0.0000024
2426.1	-0.0000048
2424.2	-0.0000029
2422.3	0.0000006
2420.3	-0.0000007
2418.4	-0.0000065
2416.5	-0.0000107
2414.6	-0.0000099
2412.6	-0.0000064
2410.7	-0.0000038
2408.8	-0.0000031
2406.8	-0.0000034
2404.9	-0.0000053
2403.0	-0.0000102
2401.1	-0.0000135
2399.1	-0.0000105
2397.2	-0.0000057
2395.3	-0.0000050
2393.3	-0.0000072
2391.4	-0.0000093
2389.5	-0.0000119
2387.6	-0.0000138
2385.6	-0.0000145
2383.7	-0.0000145
2381.8	-0.0000129
2379.8	-0.0000092
2377.9	-0.0000071
2376.0	-0.0000120
2374.1	-0.0000256
2372.1	-0.0000449
2370.2	-0.0000629
2368.3	-0.0000730
2366.3	-0.0000781
2364.4	-0.0000824
2362.5	-0.0000830
2360.6	-0.0000787
2358.6	-0.0000714
2356.7	-0.0000616
2354.8	-0.0000547
2352.8	-0.0000536
2350.9	-0.0000508
2349.0	-0.0000438
2347.1	-0.0000384
2345.1	-0.0000365
2343.2	-0.0000345
2341.3	-0.0000324
2339.3	-0.0000300
2337.4	-0.0000233
2335.5	-0.0000138
2333.6	-0.0000117
2331.6	-0.0000197
2329.7	-0.0000259
2327.8	-0.0000228
2325.8	-0.0000159
2323.9	-0.0000092
2322.0	-0.0000038
2320.1	-0.0000030
2318.1	-0.0000068
2316.2	-0.0000107
2314.3	-0.0000125
2312.3	-0.0000123
2310.4	-0.0000092
2308.5	-0.0000049
2306.6	-0.0000001
2304.6	0.0000061
2302.7	0.0000101
2300.8	0.0000094
2298.8	0.0000075
2296.9	0.0000068
2295.0	0.0000064
2293.1	0.0000082
2291.1	0.0000126
2289.2	0.0000142
2287.3	0.0000152
2285.3	0.0000199
2283.4	0.0000213
2281.5	0.0000157
2279.6	0.0000110
2277.6	0.0000096
2275.7	0.0000100
2273.8	0.0000097
2271.8	0.0000103
2269.9	0.0000182
2268.0	0.0000280
2266.1	0.0000282
2264.1	0.0000225
2262.2	0.0000185
2260.3	0.0000178
2258.3	0.0000210
2256.4	0.0000268
2254.5	0.0000296
2252.6	0.0000270
2250.6	0.0000257
2248.7	0.0000276
2246.8	0.0000246
2244.8	0.0000152
2242.9	0.0000075
2241.0	0.0000045
2239.1	0.0000075
2237.1	0.0000158
2235.2	0.0000187
2233.3	0.0000122
2231.3	0.0000072
2229.4	0.0000076
2227.5	0.0000074
2225.6	0.0000081
2223.6	0.0000120
2221.7	0.0000151
2219.8	0.0000151
2217.8	0.0000137
2215.9	0.0000117
2214.0	0.0000073
2212.1	0.0000006
2210.1	-0.0000039
2208.2	-0.0000031
2206.3	0.0000043
2204.3	0.0000148
2202.4	0.0000198
2200.5	0.0000200
2198.6	0.0000220
2196.6	0.0000258
2194.7	0.0000281
2192.8	0.0000281
2190.8	0.0000267
2188.9	0.0000251
2187.0	0.0000234
2185.1	0.0000215
2183.1	0.0000211
2181.2	0.0000224
2179.3	0.0000227
2177.3	0.0000214
2175.4	0.0000210
2173.5	0.0000238
2171.6	0.0000299
2169.6	0.0000353
2167.7	0.0000372
2165.8	0.0000336
2163.8	0.0000260
2161.9	0.0000235
2160.0	0.0000274
2158.1	0.0000285
2156.1	0.0000254
2154.2	0.0000251
2152.3	0.0000292
2150.3	0.0000329
2148.4	0.0000344
2146.5	0.0000355
2144.6	0.0000351
2142.6	0.0000327
2140.7	0.0000296
2138.8	0.0000238
2136.8	0.0000147
2134.9	0.0000115
2133.0	0.0000185
2131.1	0.0000268
2129.1	0.0000308
2127.2	0.0000318
2125.3	0.0000267
2123.3	0.0000195
2121.4	0.0000211
2119.5	0.0000295
2117.6	0.0000359
2115.6	0.0000377
2113.7	0.0000345
2111.8	0.0000306
2109.8	0.0000295
2107.9	0.0000281
2106.0	0.0000238
2104.1	0.0000187
2102.1	0.0000151
2100.2	0.0000090
2098.3	-0.0000049
2096.3	-0.0000265
2094.4	-0.0000573
2092.5	-0.0001093
2090.6	-0.0001997
2088.6	-0.0003108
2086.7	-0.0003747
2084.8	-0.0003474
2082.8	-0.0002649
2080.9	-0.0001888
2079.0	-0.0001421
2077.1	-0.0001118
2075.1	-0.0000848
2073.2	-0.0000621
2071.3	-0.0000436
2069.3	-0.0000253
2067.4	-0.0000060
2065.5	0.0000142
2063.6	0.0000360
2061.6	0.0000616
2059.7	0.0000932
2057.8	0.0001263
2055.8	0.0001557
2053.9	0.0001807
2052.0	0.0001994
2050.1	0.0002164
2048.1	0.0002385
2046.2	0.0002594
2044.3	0.0002697
2042.3	0.0002734
2040.4	0.0002784
2038.5	0.0002857
2036.6	0.0002882
2034.6	0.0002825
2032.7	0.0002751
2030.8	0.0002717
2028.8	0.0002699
2026.9	0.0002642
2025.0	0.0002531
2023.1	0.0002418
2021.1	0.0002361
2019.2	0.0002338
2017.3	0.0002271
2015.3	0.0002144
2013.4	0.0002049
2011.5	0.0002013
2009.6	0.0001952
2007.6	0.0001846
2005.7	0.0001729
2003.8	0.0001634
2001.8	0.0001571
1999.9	0.0001501
1998.0	0.0001384
1996.1	0.0001250
1994.1	0.0001191
1992.2	0.0001198
1990.3	0.0001142
1988.3	0.0001020
1986.4	0.0000928
1984.5	0.0000873
1982.6	0.0000823
1980.6	0.0000772
1978.7	0.0000692
1976.8	0.0000569
1974.8	0.0000464
1972.9	0.0000435
1971.0	0.0000455
1969.1	0.0000476
1967.1	0.0000448
1965.2	0.0000352
1963.3	0.0000249
1961.4	0.0000186
1959.4	0.0000149
1957.5	0.0000128
1955.6	0.0000135
1953.6	0.0000139
1951.7	0.0000086
1949.8	0.0000033
1947.9	0.0000059
1945.9	0.0000143
1944.0	0.0000226
1942.1	0.0000214
1940.1	0.0000090
1938.2	0.0000004
1936.3	0.0000021
1934.4	0.0000050
1932.4	0.0000053
1930.5	0.0000051
1928.6	0.0000037
1926.6	0.0000044
1924.7	0.0000081
1922.8	0.0000110
1920.9	0.0000188
1918.9	0.0000316
1917.0	0.0000313
1915.1	0.0000160
1913.1	0.0000065
1911.2	0.0000088
1909.3	0.0000118
1907.4	0.0000098
1905.4	0.0000053
1903.5	0.0000007
1901.6	-0.0000027
1899.6	-0.0000024
1897.7	0.0000030
1895.8	0.0000080
1893.9	0.0000074
1891.9	0.0000074
1890.0	0.0000099
1888.1	0.0000078
1886.1	0.0000023
1884.2	-0.0000021
1882.3	-0.0000050
1880.4	-0.0000067
1878.4	-0.0000089
1876.5	-0.0000105
1874.6	-0.0000076
1872.6	0.0000062
1870.7	0.0000298
1868.8	0.0000391
1866.9	0.0000220
1864.9	0.0000055
1863.0	0.0000044
1861.1	0.0000064
1859.1	0.0000079
1857.2	0.0000111
1855.3	0.0000139
1853.4	0.0000146
1851.4	0.0000104
1849.5	0.0000061
1847.6	0.0000238
1845.6	0.0000637
1843.7	0.0000768
1841.8	0.0000495
1839.9	0.0000287
1837.9	0.0000311
1836.0	0.0000381
1834.1	0.0000460
1832.1	0.0000601
1830.2	0.0000720
1828.3	0.0000730
1826.4	0.0000702
1824.4	0.0000664
1822.5	0.0000586
1820.6	0.0000529
1818.6	0.0000530
1816.7	0.0000555
1814.8	0.0000588
1812.9	0.0000623
1810.9	0.0000635
1809.0	0.0000601
1807.1	0.0000555
1805.1	0.0000522
1803.2	0.0000478
1801.3	0.0000424
1799.4	0.0000375
1797.4	0.0000331
1795.5	0.0000363
1793.6	0.0000434
1791.6	0.0000337
1789.7	0.0000119
1787.8	0.0000061
1785.9	0.0000142
1783.9	0.0000140
1782.0	0.0000054
1780.1	-0.0000010
1778.1	-0.0000013
1776.2	0.0000199
1774.3	0.0000680
1772.4	0.0000913
1770.4	0.0000543
1768.5	0.0000063
1766.6	-0.0000097
1764.6	-0.0000037
1762.7	0.0000042
1760.8	-0.0000008
1758.9	-0.0000121
1756.9	-0.0000164
1755.0	-0.0000077
1753.1	0.0000179
1751.1	0.0000373
1749.2	0.0000267
1747.3	0.0000082
1745.4	0.0000030
1743.4	0.0000072
1741.5	0.0000156
1739.6	0.0000213
1737.6	0.0000431
1735.7	0.0000952
1733.8	0.0001143
1731.9	0.0000671
1729.9	0.0000201
1728.0	0.0000093
1726.1	0.0000099
1724.1	0.0000070
1722.2	0.0000165
1720.3	0.0000722
1718.4	0.0001499
1716.4	0.0001598
1714.5	0.0000936
1712.6	0.0000319
1710.6	0.0000113
1708.7	0.0000241
1706.8	0.0000579
1704.9	0.0000980
1702.9	0.0001496
1701.0	0.0001980
1699.1	0.0002068
1697.1	0.0001938
1695.2	0.0001741
1693.3	0.0001384
1691.4	0.0001162
1689.4	0.0001365
1687.5	0.0002264
1685.6	0.0003476
1683.6	0.0003681
1681.7	0.0002903
1679.8	0.0002402
1677.9	0.0002559
1675.9	0.0002870
1674.0	0.0002863
1672.1	0.0002708
1670.1	0.0002640
1668.2	0.0002441
1666.3	0.0002171
1664.4	0.0002072
1662.4	0.0001961
1660.5	0.0001735
1658.6	0.0001709
1656.6	0.0002459
1654.7	0.0004040
1652.8	0.0004828
1650.9	0.0003949
1648.9	0.0003191
1647.0	0.0003263
1645.1	0.0003031
1643.1	0.0002473
1641.2	0.0002294
1639.3	0.0002528
1637.4	0.0002947
1635.4	0.0003135
1633.5	0.0002842
1631.6	0.0002506
1629.6	0.0002416
1627.7	0.0002366
1625.8	0.0002261
1623.9	0.0002127
1621.9	0.0001975
1620.0	0.0002123
1618.1	0.0002648
1616.1	0.0002684
1614.2	0.0001927
1612.3	0.0001256
1610.4	0.0001006
1608.4	0.0000803
1606.5	0.0000541
1604.6	0.0000389
1602.6	0.0000354
1600.7	0.0000281
1598.8	0.0000207
1596.9	0.0000226
1594.9	0.0000259
1593.0	0.0000264
1591.1	0.0000293
1589.1	0.0000439
1587.2	0.0000712
1585.3	0.0000894
1583.4	0.0000815
1581.4	0.0000633
1579.5	0.0000822
1577.6	0.0001477
1575.6	0.0001689
1573.7	0.0001190
1571.8	0.0000945
1569.9	0.0000989
1567.9	0.0000713
1566.0	0.0000334
1564.1	0.0000270
1562.1	0.0000751
1560.2	0.0001619
1558.3	0.0001970
1556.4	0.0001487
1554.4	0.0000848
1552.5	0.0000404
1550.6	0.0000142
1548.6	0.0000106
1546.7	0.0000369
1544.8	0.0000984
1542.9	0.0001818
1540.9	0.0002321
1539.0	0.0001854
1537.1	0.0000937
1535.1	0.0000558
1533.2	0.0000479
1531.3	0.0000219
1529.4	0.0000037
1527.4	0.0000050
1525.5	0.0000163
1523.6	0.0000487
1521.6	0.0000764
1519.7	0.0000624
1517.8	0.0000293
1515.9	0.0000035
1513.9	-0.0000118
1512.0	-0.0000021
1510.1	0.0000598
1508.1	0.0001636
1506.2	0.0002028
1504.3	0.0001222
1502.4	0.0000353
1500.4	0.0000232
1498.5	0.0000416
1496.6	0.0000438
1494.6	0.0000366
1492.7	0.0000508
1490.8	0.0000832
1488.9	0.0001032
1486.9	0.0001099
1485.0	0.0001230
1483.1	0.0001421
1481.1	0.0001511
1479.2	0.0001528
1477.3	0.0001584
1475.4	0.0001627
1473.4	0.0001576
1471.5	0.0001344
1469.6	0.0001108
1467.6	0.0001335
1465.7	0.0001867
1463.8	0.0001949
1461.9	0.0001516
1459.9	0.0001352
1458.0	0.0001576
1456.1	0.0001343
1454.1	0.0000599
1452.2	0.0000164
1450.3	0.0000189
1448.4	0.0000256
1446.4	0.0000165
1444.5	0.0000087
1442.6	0.0000126
1440.6	0.0000165
1438.7	0.0000286
1436.8	0.0000493
1434.9	0.0000836
1432.9	0.0001521
1431.0	0.0002015
1429.1	0.0001681
1427.1	0.0000979
1425.2	0.0000662
1423.3	0.0000796
1421.4	0.0001118
1419.4	0.0001338
1417.5	0.0001327
1415.6	0.0001429
1413.6	0.0001893
1411.7	0.0002484
1409.8	0.0002889
1407.9	0.0002995
1405.9	0.0002817
1404.0	0.0002424
1402.1	0.0002059
1400.1	0.0001859
1398.2	0.0001666
1396.3	0.0001421
1394.4	0.0001071
1392.4	0.0000632
1390.5	0.0000407
1388.6	0.0000442
1386.6	0.0000424
1384.7	0.0000310
1382.8	0.0000289
1380.9	0.0000392
1378.9	0.0000614
1377.0	0.0000990
1375.1	0.0001425
1373.1	0.0001824
1371.2	0.0002196
1369.3	0.0002372
1367.4	0.0002181
1365.4	0.0001857
1363.5	0.0001674
1361.6	0.0001601
1359.6	0.0001505
1357.7	0.0001342
1355.8	0.0001134
1353.9	0.0000909
1351.9	0.0000723
1350.0	0.0000608
1348.1	0.0000509
1346.1	0.0000369
1344.2	0.0000270
1342.3	0.0000322
1340.4	0.0000408
1338.4	0.0000368
1336.5	0.0000319
1334.6	0.0000345
1332.6	0.0000336
1330.7	0.0000283
1328.8	0.0000278
1326.9	0.0000330
1324.9	0.0000375
1323.0	0.0000346
1321.1	0.0000271
1319.1	0.0000221
1317.2	0.0000180
1315.3	0.0000136
1313.4	0.0000146
1311.4	0.0000230
1309.5	0.0000295
1307.6	0.0000309
1305.6	0.0000294
1303.7	0.0000257
1301.8	0.0000238
1299.9	0.0000231
1297.9	0.0000236
1296.0	0.0000255
1294.1	0.0000228
1292.1	0.0000179
1290.2	0.0000193
1288.3	0.0000247
1286.4	0.0000276
1284.4	0.0000251
1282.5	0.0000227
1280.6	0.0000267
1278.6	0.0000282
1276.7	0.0000210
1274.8	0.0000175
1272.9	0.0000196
1270.9	0.0000181
1269.0	0.0000154
1267.1	0.0000153
1265.1	0.0000180
1263.2	0.0000250
1261.3	0.0000340
1259.4	0.0000420
1257.4	0.0000474
1255.5	0.0000452
1253.6	0.0000368
1251.6	0.0000320
1249.7	0.0000347
1247.8	0.0000428
1245.9	0.0000483
1243.9	0.0000481
1242.0	0.0000518
1240.1	0.0000617
1238.1	0.0000709
1236.2	0.0000784
1234.3	0.0000812
1232.4	0.0000743
1230.4	0.0000617
1228.5	0.0000521
1226.6	0.0000481
1224.6	0.0000477
1222.7	0.0000509
1220.8	0.0000525
1218.9	0.0000474
1216.9	0.0000466
1215.0	0.0000568
1213.1	0.0000647
1211.1	0.0000656
1209.2	0.0000659
1207.3	0.0000641
1205.4	0.0000593
1203.4	0.0000614
1201.5	0.0000824
1199.6	0.0001137
1197.6	0.0001243
1195.7	0.0001021
1193.8	0.0000721
1191.9	0.0000558
1189.9	0.0000537
1188.0	0.0000573
1186.1	0.0000499
1184.1	0.0000247
1182.2	0.0000065
1180.3	0.0000142
1178.4	0.0000265
1176.4	0.0000275
1174.5	0.0000266
1172.6	0.0000237
1170.6	0.0000140
1168.7	0.0000030
1166.8	-0.0000026
1164.9	0.0000007
1162.9	0.0000127
1161.0	0.0000190
1159.1	0.0000118
1157.1	0.0000119
1155.2	0.0000280
1153.3	0.0000332
1151.4	0.0000188
1149.4	0.0000081
1147.5	0.0000067
1145.6	-0.0000014
1143.6	-0.0000108
1141.7	-0.0000040
1139.8	0.0000110
1137.9	0.0000138
1135.9	0.0000049
1134.0	0.0000015
1132.1	0.0000094
1130.1	0.0000204
1128.2	0.0000276
1126.3	0.0000295
1124.4	0.0000296
1122.4	0.0000316
1120.5	0.0000303
1118.6	0.0000247
1116.6	0.0000249
1114.7	0.0000289
1112.8	0.0000267
1110.9	0.0000227
1108.9	0.0000234
1107.0	0.0000273
1105.1	0.0000307
1103.1	0.0000330
1101.2	0.0000313
1099.3	0.0000254
1097.4	0.0000257
1095.4	0.0000341
1093.5	0.0000466
1091.6	0.0000597
1089.6	0.0000623
1087.7	0.0000550
1085.8	0.0000511
1083.9	0.0000512
1081.9	0.0000472
1080.0	0.0000336
1078.1	0.0000130
1076.1	0.0000011
1074.2	0.0000126
1072.3	0.0000359
1070.4	0.0000495
1068.4	0.0000472
1066.5	0.0000363
1064.6	0.0000258
1062.6	0.0000199
1060.7	0.0000197
1058.8	0.0000219
1056.9	0.0000253
1054.9	0.0000327
1053.0	0.0000386
1051.1	0.0000383
1049.1	0.0000354
1047.2	0.0000364
1045.3	0.0000459
1043.4	0.0000559
1041.4	0.0000584
1039.5	0.0000594
1037.6	0.0000639
1035.6	0.0000756
1033.7	0.0000918
1031.8	0.0000958
1029.9	0.0000895
1027.9	0.0000986
1026.0	0.0001269
1024.1	0.0001540
1022.1	0.0001650
1020.2	0.0001652
1018.3	0.0001674
1016.4	0.0001727
1014.4	0.0001733
1012.5	0.0001621
1010.6	0.0001419
1008.6	0.0001250
1006.7	0.0001133
1004.8	0.0001053
1002.9	0.0001004
1000.9	0.0000968
999.0	0.0000998
997.1	0.0001082
995.1	0.0001105
993.2	0.0001030
991.3	0.0000960
989.4	0.0001025
987.4	0.0001183
985.5	0.0001254
983.6	0.0001256
981.6	0.0001370
979.7	0.0001502
977.8	0.0001442
975.9	0.0001342
973.9	0.0001364
972.0	0.0001355
970.1	0.0001235
968.1	0.0001126
966.2	0.0001088
964.3	0.0001084
962.4	0.0001127
960.4	0.0001176
958.5	0.0001098
956.6	0.0000964
954.6	0.0000962
952.7	0.0001038
950.8	0.0001058
948.9	0.0001042
946.9	0.0001040
945.0	0.0001033
943.1	0.0001019
941.1	0.0000990
939.2	0.0000970
937.3	0.0001004
935.4	0.0001004
933.4	0.0000959
931.5	0.0000970
929.6	0.0000958
927.6	0.0000843
925.7	0.0000718
923.8	0.0000619
921.9	0.0000478
919.9	0.0000327
918.0	0.0000239
916.1	0.0000195
914.1	0.0000221
912.2	0.0000313
910.3	0.0000302
908.4	0.0000213
906.4	0.0000260
904.5	0.0000413
902.6	0.0000444
900.6	0.0000266
898.7	0.0000003
896.8	-0.0000150
894.9	-0.0000144
892.9	-0.0000056
891.0	0.0000165
889.1	0.0000578
887.1	0.0000980
885.2	0.0001100
883.3	0.0000809
881.4	0.0000176
879.4	-0.0000500
877.5	-0.0000786
875.6	-0.0000605
873.6	-0.0000406
871.7	-0.0000489
869.8	-0.0000629
867.9	-0.0000640
865.9	-0.0000635
864.0	-0.0000648
862.1	-0.0000652
860.1	-0.0000591
858.2	-0.0000336
856.3	-0.0000030
854.4	0.0000055
852.4	-0.0000039
850.5	-0.0000092
848.6	0.0000006
846.6	0.0000093
844.7	0.0000046
842.8	0.0000055
840.9	0.0000265
838.9	0.0000443
837.0	0.0000320
835.1	0.0000033
833.1	-0.0000314
831.2	-0.0000834
829.3	-0.0001212
827.4	-0.0001094
825.4	-0.0000742
823.5	-0.0000509
821.6	-0.0000427
819.6	-0.0000304
817.7	-0.0000003
815.8	0.0000239
813.9	0.0000121
811.9	-0.0000286
810.0	-0.0000673
808.1	-0.0000732
806.1	-0.0000486
804.2	-0.0000336
802.3	-0.0000527
800.4	-0.0000714
798.4	-0.0000325
796.5	0.0000576
794.6	0.0001490
792.6	0.0002081
790.7	0.0002192
788.8	0.0002265
786.9	0.0002605
784.9	0.0002722
783.0	0.0002577
781.1	0.0002684
779.1	0.0002948
777.2	0.0002863
775.3	0.0002498
773.4	0.0002289
771.4	0.0002126
769.5	0.0001775
767.6	0.0001499
765.6	0.0001618
763.7	0.0001918
761.8	0.0001802
759.9	0.0001005
757.9	-0.0000022
756.0	-0.0000263
754.1	0.0000617
752.1	0.0001676
750.2	0.0002146
748.3	0.0002294
746.4	0.0002449
744.4	0.0002313
742.5	0.0001764
740.6	0.0001425
738.6	0.0001159
736.7	0.0000300
734.8	-0.0000040
732.9	0.0000705
730.9	0.0000684
729.0	-0.0000463
727.1	-0.0000821
725.1	0.0000407
723.2	0.0001760
721.3	0.0002026
719.4	0.0001889
717.4	0.0002080
715.5	0.0002834
713.6	0.0004079
711.6	0.0004872
709.7	0.0004710
707.8	0.0003836
705.9	0.0002778
703.9	0.0002557
702.0	0.0003095
700.1	0.0002929
698.1	0.0001670
696.2	0.0000474
694.3	0.0000067
692.4	0.0000098
690.4	0.0000365
688.5	0.0001199
686.6	0.0002507
684.6	0.0003429
682.7	0.0003534
680.8	0.0003454
678.9	0.0003610
676.9	0.0003205
675.0	0.0001864
673.1	0.0000788
671.1	0.0000833
669.2	0.0001149
667.3	0.0000469
665.4	-0.0000596
663.4	-0.0000420
661.5	0.0000477
659.6	0.0000013
657.6	-0.0001458
655.7	-0.0001241
653.8	0.0000495
651.9	0.0001158
649.9	0.0000309
648.0	-0.0000375
646.1	-0.0000127
644.1	0.0000239
642.2	0.0000660
640.3	0.0001361
638.4	0.0000591
636.4	-0.0002279
634.5	-0.0003387
632.6	-0.0000845
630.6	0.0002313
628.7	0.0003681
626.8	0.0002769
624.9	0.0001091
622.9	0.0000105
621.0	-0.0000401
619.1	-0.0000299
617.1	0.0000729
615.2	0.0001431
613.3	-0.0000598
611.4	-0.0004107
609.4	-0.0005722
607.5	-0.0004759
605.6	-0.0002863
603.6	-0.0002031
601.7	-0.0002264
599.8	-0.0002558
597.9	-0.0001951
595.9	-0.0000523
594.0	0.0000694
592.1	0.0001276
590.1	0.0000767
588.2	-0.0000490
586.3	-0.0000089
584.4	0.0002216
582.4	0.0002294
580.5	-0.0001115
578.6	-0.0005645
576.6	-0.0008873
574.7	-0.0009339
572.8	-0.0007547
570.9	-0.0003317
568.9	0.0000749
567.0	0.0001409
565.1	-0.0000096
563.1	-0.0001791
561.2	-0.0002848
559.3	-0.0002600
557.4	-0.0000251
555.4	0.0001726
553.5	0.0000952
551.6	-0.0001841
549.6	-0.0004576
547.7	-0.0004517
545.8	-0.0001027
543.9	0.0004674
541.9	0.0008684
540.0	0.0010104
538.1	0.0013737
536.1	0.0021049
534.2	0.0022890
532.3	0.0011496
530.4	-0.0003800
528.4	-0.0011909
526.5	-0.0012939
524.6	-0.0011040
522.6	0.0007063
520.7	0.0053254
518.8	0.0108545
516.9	0.0124628
514.9	0.0039062
513.0	-0.0060655
511.1	-0.0020927
509.1	0.0066838
507.2	0.0062086
505.3	0.0016504
503.4	-0.0006034
501.4	-0.0009096
499.5	-0.0001979
497.6	0.0003362
495.6	0.0000881
493.7	-0.0004530
491.8	-0.0005696
489.9	-0.0002691
487.9	-0.0001264
486.0	-0.0000856
484.1	0.0007024
482.1	0.0015687
480.2	0.0012450
478.3	0.0003346
476.4	-0.0003947
474.4	-0.0007231
472.5	-0.0006723
470.6	-0.0005592
468.6	-0.0003609
466.7	-0.0000422
464.8	0.0001574
462.9	0.0001702
460.9	0.0000584
459.0	-0.0001589
457.1	-0.0004473
455.1	-0.0010337
453.2	-0.0017714
451.3	-0.0017326
449.4	-0.0007042
447.4	0.0004456
445.5	0.0010825
443.6	0.0011359
441.6	0.0006890
439.7	-0.0000619
437.8	-0.0008618
435.9	-0.0009793
433.9	-0.0000017
432.0	0.0010178
430.1	0.0011371
428.1	0.0005614
426.2	-0.0000412
424.3	-0.0000654
422.4	0.0007322
420.4	0.0018249
418.5	0.0019958
416.6	0.0009698
414.6	-0.0001286
412.7	-0.0003043
410.8	0.0002716
408.9	0.0007279
406.9	0.0006621
405.0	0.0003920
403.1	0.0004142
401.1	0.0006157
399.2	0.0005984
397.3	0.0005498
395.4	0.0005652
393.4	0.0003050
391.5	-0.0002291
389.6	-0.0005601
387.6	-0.0005917
385.7	-0.0007583
383.8	-0.0009916
381.9	-0.0009150
379.9	-0.0007138
378.0	-0.0006317
376.1	-0.0006102
374.1	-0.0005731
372.2	-0.0003923
370.3	-0.0001415
368.4	-0.0001344
