3997.9	0.0000824
3996.0	0.0000698
3994.1	0.0000554
3992.1	0.0000546
3990.2	0.0000706
3988.3	0.0000815
3986.3	0.0000675
3984.4	0.0000494
3982.5	0.0000479
3980.6	0.0000477
3978.6	0.0000375
3976.7	0.0000290
3974.8	0.0000339
3972.8	0.0000447
3970.9	0.0000449
3969.0	0.0000387
3967.1	0.0000429
3965.1	0.0000524
3963.2	0.0000542
3961.3	0.0000519
3959.3	0.0000511
3957.4	0.0000501
3955.5	0.0000445
3953.6	0.0000356
3951.6	0.0000273
3949.7	0.0000172
3947.8	0.0000021
3945.8	-0.0000091
3943.9	-0.0000027
3942.0	0.0000144
3940.1	0.0000218
3938.1	0.0000203
3936.2	0.0000244
3934.3	0.0000298
3932.3	0.0000228
3930.4	0.0000055
3928.5	-0.0000102
3926.6	-0.0000197
3924.6	-0.0000235
3922.7	-0.0000216
3920.8	-0.0000111
3918.8	0.0000004
3916.9	-0.0000023
3915.0	-0.0000076
3913.1	0.0000025
3911.1	0.0000107
3909.2	0.0000090
3907.3	0.0000110
3905.3	0.0000139
3903.4	0.0000167
3901.5	0.0000274
3899.6	0.0000322
3897.6	0.0000180
3895.7	-0.0000000
3893.8	-0.0000021
3891.8	0.0000098
3889.9	0.0000232
3888.0	0.0000327
3886.1	0.0000332
3884.1	0.0000268
3882.2	0.0000262
3880.3	0.0000230
3878.3	0.0000122
3876.4	0.0000108
3874.5	0.0000101
3872.6	-0.0000088
3870.6	-0.0000273
3868.7	-0.0000227
3866.8	-0.0000074
3864.8	0.0000036
3862.9	0.0000114
3861.0	0.0000115
3859.1	0.0000128
3857.1	0.0000340
3855.2	0.0000632
3853.3	0.0000682
3851.3	0.0000473
3849.4	0.0000266
3847.5	0.0000225
3845.6	0.0000305
3843.6	0.0000305
3841.7	0.0000150
3839.8	-0.0000000
3837.8	0.0000020
3835.9	0.0000225
3834.0	0.0000404
3832.1	0.0000358
3830.1	0.0000177
3828.2	0.0000075
3826.3	0.0000092
3824.3	0.0000146
3822.4	0.0000162
3820.5	0.0000150
3818.6	0.0000200
3816.6	0.0000217
3814.7	0.0000077
3812.8	-0.0000023
3810.8	-0.0000008
3808.9	-0.0000058
3807.0	-0.0000118
3805.1	-0.0000066
3803.1	-0.0000046
3801.2	-0.0000084
3799.3	-0.0000089
3797.3	-0.0000071
3795.4	-0.0000001
3793.5	0.0000102
3791.6	0.0000183
3789.6	0.0000266
3787.7	0.0000309
3785.8	0.0000279
3783.8	0.0000219
3781.9	0.0000175
3780.0	0.0000161
3778.1	0.0000164
3776.1	0.0000151
3774.2	0.0000125
3772.3	0.0000133
3770.3	0.0000150
3768.4	0.0000122
3766.5	0.0000103
3764.6	0.0000146
3762.6	0.0000174
3760.7	0.0000149
3758.8	0.0000152
3756.8	0.0000220
3754.9	0.0000342
3753.0	0.0000490
3751.1	0.0000607
3749.1	0.0000660
3747.2	0.0000630
3745.3	0.0000508
3743.3	0.0000335
3741.4	0.0000182
3739.5	0.0000062
3737.6	-0.0000014
3735.6	0.0000121
3733.7	0.0000453
3731.8	0.0000592
3729.8	0.0000462
3727.9	0.0000408
3726.0	0.0000394
3724.1	0.0000202
3722.1	-0.0000028
3720.2	-0.0000127
3718.3	-0.0000059
3716.3	0.0000090
3714.4	0.0000208
3712.5	0.0000338
3710.6	0.0000445
3708.6	0.0000372
3706.7	0.0000168
3704.8	0.0000002
3702.8	-0.0000083
3700.9	-0.0000073
3699.0	0.0000009
3697.1	0.0000055
3695.1	0.0000057
3693.2	0.0000136
3691.3	0.0000497
3689.3	0.0000928
3687.4	0.0000836
3685.5	0.0000395
3683.6	0.0000172
3681.6	0.0000114
3679.7	0.0000010
3677.8	-0.0000096
3675.8	-0.0000070
3673.9	0.0000251
3672.0	0.0000687
3670.1	0.0000697
3668.1	0.0000301
3666.2	0.0000022
3664.3	-0.0000063
3662.3	-0.0000093
3660.4	-0.0000040
3658.5	0.0000116
3656.6	0.0000251
3654.6	0.0000285
3652.7	0.0000312
3650.8	0.0000237
3648.8	0.0000034
3646.9	-0.0000049
3645.0	0.0000042
3643.1	0.0000207
3641.1	0.0000289
3639.2	0.0000184
3637.3	-0.0000022
3635.3	-0.0000181
3633.4	-0.0000133
3631.5	0.0000092
3629.6	0.0000175
3627.6	0.0000040
3625.7	-0.0000050
3623.8	-0.0000004
3621.8	0.0000123
3619.9	0.0000217
3618.0	0.0000158
3616.1	0.0000071
3614.1	0.0000092
3612.2	0.0000209
3610.3	0.0000329
3608.3	0.0000261
3606.4	0.0000046
3604.5	-0.0000094
3602.6	-0.0000139
3600.6	-0.0000150
3598.7	-0.0000116
3596.8	-0.0000046
3594.8	0.0000030
3592.9	0.0000049
3591.0	-0.0000035
3589.1	-0.0000039
3587.1	0.0000142
3585.2	0.0000253
3583.3	0.0000205
3581.3	0.0000188
3579.4	0.0000236
3577.5	0.0000241
3575.6	0.0000174
3573.6	0.0000089
3571.7	-0.0000015
3569.8	-0.0000144
3567.8	-0.0000205
3565.9	-0.0000172
3564.0	-0.0000108
3562.1	-0.0000037
3560.1	-0.0000005
3558.2	-0.0000066
3556.3	-0.0000173
3554.3	-0.0000220
3552.4	-0.0000199
3550.5	-0.0000160
3548.6	-0.0000090
3546.6	-0.0000004
3544.7	0.0000016
3542.8	-0.0000051
3540.8	-0.0000139
3538.9	-0.0000194
3537.0	-0.0000161
3535.1	-0.0000047
3533.1	0.0000000
3531.2	-0.0000070
3529.3	-0.0000132
3527.3	-0.0000100
3525.4	-0.0000036
3523.5	-0.0000014
3521.6	-0.0000036
3519.6	-0.0000070
3517.7	-0.0000104
3515.8	-0.0000193
3513.8	-0.0000336
3511.9	-0.0000373
3510.0	-0.0000277
3508.1	-0.0000180
3506.1	-0.0000112
3504.2	-0.0000126
3502.3	-0.0000243
3500.3	-0.0000274
3498.4	-0.0000146
3496.5	-0.0000036
3494.6	-0.0000038
3492.6	-0.0000113
3490.7	-0.0000226
3488.8	-0.0000296
3486.8	-0.0000239
3484.9	-0.0000154
3483.0	-0.0000170
3481.1	-0.0000193
3479.1	-0.0000142
3477.2	-0.0000142
3475.3	-0.0000227
3473.3	-0.0000263
3471.4	-0.0000168
3469.5	-0.0000024
3467.6	-0.0000013
3465.6	-0.0000127
3463.7	-0.0000214
3461.8	-0.0000268
3459.8	-0.0000323
3457.9	-0.0000330
3456.0	-0.0000299
3454.1	-0.0000246
3452.1	-0.0000139
3450.2	-0.0000050
3448.3	-0.0000123
3446.3	-0.0000348
3444.4	-0.0000485
3442.5	-0.0000398
3440.6	-0.0000241
3438.6	-0.0000158
3436.7	-0.0000151
3434.8	-0.0000202
3432.8	-0.0000241
3430.9	-0.0000229
3429.0	-0.0000252
3427.1	-0.0000342
3425.1	-0.0000416
3423.2	-0.0000382
3421.3	-0.0000235
3419.3	-0.0000114
3417.4	-0.0000130
3415.5	-0.0000145
3413.6	-0.0000045
3411.6	0.0000034
3409.7	-0.0000028
3407.8	-0.0000138
3405.8	-0.0000197
3403.9	-0.0000154
3402.0	-0.0000022
3400.1	0.0000049
3398.1	-0.0000077
3396.2	-0.0000300
3394.3	-0.0000399
3392.3	-0.0000343
3390.4	-0.0000261
3388.5	-0.0000223
3386.6	-0.0000250
3384.6	-0.0000273
3382.7	-0.0000222
3380.8	-0.0000157
3378.8	-0.0000131
3376.9	-0.0000168
3375.0	-0.0000227
3373.1	-0.0000165
3371.1	-0.0000031
3369.2	0.0000009
3367.3	-0.0000007
3365.3	-0.0000034
3363.4	-0.0000129
3361.5	-0.0000258
3359.6	-0.0000325
3357.6	-0.0000289
3355.7	-0.0000219
3353.8	-0.0000175
3351.8	-0.0000195
3349.9	-0.0000286
3348.0	-0.0000314
3346.1	-0.0000268
3344.1	-0.0000271
3342.2	-0.0000242
3340.3	-0.0000112
3338.3	0.0000019
3336.4	0.0000077
3334.5	0.0000039
3332.6	-0.0000082
3330.6	-0.0000229
3328.7	-0.0000350
3326.8	-0.0000391
3324.8	-0.0000316
3322.9	-0.0000212
3321.0	-0.0000190
3319.1	-0.0000205
3317.1	-0.0000222
3315.2	-0.0000282
3313.3	-0.0000322
3311.3	-0.0000246
3309.4	-0.0000146
3307.5	-0.0000163
3305.6	-0.0000243
3303.6	-0.0000264
3301.7	-0.0000267
3299.8	-0.0000325
3297.8	-0.0000369
3295.9	-0.0000366
3294.0	-0.0000320
3292.1	-0.0000218
3290.1	-0.0000186
3288.2	-0.0000238
3286.3	-0.0000197
3284.3	-0.0000118
3282.4	-0.0000140
3280.5	-0.0000191
3278.6	-0.0000164
3276.6	-0.0000077
3274.7	-0.0000039
3272.8	-0.0000053
3270.8	-0.0000043
3268.9	-0.0000037
3267.0	-0.0000071
3265.1	-0.0000136
3263.1	-0.0000231
3261.2	-0.0000281
3259.3	-0.0000256
3257.3	-0.0000251
3255.4	-0.0000281
3253.5	-0.0000283
3251.6	-0.0000266
3249.6	-0.0000237
3247.7	-0.0000158
3245.8	-0.0000057
3243.8	-0.0000051
3241.9	-0.0000174
3240.0	-0.0000240
3238.1	-0.0000130
3236.1	-0.0000012
3234.2	-0.0000024
3232.3	-0.0000070
3230.3	-0.0000082
3228.4	-0.0000088
3226.5	-0.0000109
3224.6	-0.0000131
3222.6	-0.0000089
3220.7	-0.0000009
3218.8	0.0000015
3216.8	0.0000024
3214.9	0.0000055
3213.0	0.0000060
3211.1	0.0000008
3209.1	-0.0000074
3207.2	-0.0000118
3205.3	-0.0000075
3203.3	-0.0000005
3201.4	-0.0000007
3199.5	-0.0000033
3197.6	0.0000013
3195.6	0.0000092
3193.7	0.0000100
3191.8	0.0000065
3189.8	0.0000076
3187.9	0.0000089
3186.0	0.0000050
3184.1	0.0000006
3182.1	-0.0000021
3180.2	-0.0000023
3178.3	0.0000014
3176.3	0.0000042
3174.4	0.0000036
3172.5	0.0000030
3170.6	0.0000032
3168.6	0.0000055
3166.7	0.0000070
3164.8	0.0000040
3162.8	0.0000028
3160.9	0.0000078
3159.0	0.0000106
3157.1	0.0000068
3155.1	0.0000029
3153.2	0.0000054
3151.3	0.0000108
3149.3	0.0000160
3147.4	0.0000233
3145.5	0.0000290
3143.6	0.0000254
3141.6	0.0000137
3139.7	0.0000027
3137.8	0.0000008
3135.8	0.0000085
3133.9	0.0000156
3132.0	0.0000154
3130.1	0.0000113
3128.1	0.0000081
3126.2	0.0000076
3124.3	0.0000086
3122.3	0.0000096
3120.4	0.0000098
3118.5	0.0000086
3116.6	0.0000040
3114.6	0.0000001
3112.7	0.0000024
3110.8	0.0000041
3108.8	-0.0000031
3106.9	-0.0000127
3105.0	-0.0000125
3103.1	-0.0000027
3101.1	0.0000080
3099.2	0.0000140
3097.3	0.0000082
3095.3	-0.0000022
3093.4	-0.0000013
3091.5	0.0000036
3089.6	-0.0000010
3087.6	-0.0000098
3085.7	-0.0000096
3083.8	0.0000011
3081.8	0.0000085
3079.9	0.0000027
3078.0	-0.0000091
3076.1	-0.0000093
3074.1	-0.0000013
3072.2	-0.0000029
3070.3	-0.0000102
3068.3	-0.0000099
3066.4	-0.0000003
3064.5	0.0000086
3062.6	0.0000090
3060.6	0.0000041
3058.7	-0.0000004
3056.8	0.0000001
3054.8	0.0000062
3052.9	0.0000111
3051.0	0.0000042
3049.1	-0.0000058
3047.1	-0.0000033
3045.2	0.0000004
3043.3	-0.0000043
3041.3	-0.0000085
3039.4	-0.0000085
3037.5	-0.0000025
3035.6	0.0000100
3033.6	0.0000186
3031.7	0.0000160
3029.8	0.0000086
3027.8	0.0000025
3025.9	-0.0000028
3024.0	-0.0000075
3022.1	-0.0000096
3020.1	-0.0000189
3018.2	-0.0000412
3016.3	-0.0000530
3014.3	-0.0000389
3012.4	-0.0000134
3010.5	0.0000022
3008.6	0.0000035
3006.6	0.0000057
3004.7	0.0000163
3002.8	0.0000242
3000.8	0.0000250
2998.9	0.0000242
2997.0	0.0000199
2995.1	0.0000109
2993.1	0.0000028
2991.2	-0.0000044
2989.3	-0.0000052
2987.3	0.0000035
2985.4	0.0000092
2983.5	0.0000073
2981.6	0.0000040
2979.6	0.0000036
2977.7	0.0000047
2975.8	0.0000069
2973.8	0.0000157
2971.9	0.0000259
2970.0	0.0000268
2968.1	0.0000275
2966.1	0.0000329
2964.2	0.0000264
2962.3	0.0000085
2960.3	-0.0000015
2958.4	0.0000001
2956.5	0.0000060
2954.6	0.0000109
2952.6	0.0000121
2950.7	0.0000100
2948.8	0.0000083
2946.8	0.0000085
2944.9	0.0000090
2943.0	0.0000073
2941.1	0.0000019
2939.1	-0.0000028
2937.2	0.0000014
2935.3	0.0000111
2933.3	0.0000146
2931.4	0.0000087
2929.5	-0.0000013
2927.6	-0.0000056
2925.6	-0.0000013
2923.7	0.0000034
2921.8	0.0000046
2919.8	0.0000038
2917.9	0.0000024
2916.0	0.0000008
2914.1	-0.0000019
2912.1	-0.0000038
2910.2	-0.0000035
2908.3	-0.0000028
2906.3	-0.0000013
2904.4	-0.0000004
2902.5	-0.0000018
2900.6	-0.0000026
2898.6	-0.0000011
2896.7	-0.0000048
2894.8	-0.0000111
2892.8	-0.0000086
2890.9	-0.0000008
2889.0	0.0000037
2887.1	0.0000045
2885.1	0.0000013
2883.2	-0.0000060
2881.3	-0.0000116
2879.3	-0.0000104
2877.4	-0.0000048
2875.5	-0.0000023
2873.6	-0.0000071
2871.6	-0.0000123
2869.7	-0.0000118
2867.8	-0.0000070
2865.8	-0.0000022
2863.9	-0.0000009
2862.0	-0.0000002
2860.1	0.0000031
2858.1	0.0000028
2856.2	-0.0000011
2854.3	-0.0000009
2852.3	0.0000040
2850.4	0.0000048
2848.5	-0.0000039
2846.6	-0.0000127
2844.6	-0.0000131
2842.7	-0.0000096
2840.8	-0.0000058
2838.8	-0.0000025
2836.9	-0.0000042
2835.0	-0.0000086
2833.1	-0.0000082
2831.1	-0.0000074
2829.2	-0.0000138
2827.3	-0.0000203
2825.3	-0.0000204
2823.4	-0.0000194
2821.5	-0.0000189
2819.6	-0.0000178
2817.6	-0.0000174
2815.7	-0.0000149
2813.8	-0.0000101
2811.8	-0.0000089
2809.9	-0.0000131
2808.0	-0.0000184
2806.1	-0.0000195
2804.1	-0.0000156
2802.2	-0.0000122
2800.3	-0.0000117
2798.3	-0.0000096
2796.4	-0.0000068
2794.5	-0.0000106
2792.6	-0.0000179
2790.6	-0.0000206
2788.7	-0.0000191
2786.8	-0.0000177
2784.8	-0.0000189
2782.9	-0.0000249
2781.0	-0.0000319
2779.1	-0.0000369
2777.1	-0.0000409
2775.2	-0.0000396
2773.3	-0.0000327
2771.3	-0.0000293
2769.4	-0.0000310
2767.5	-0.0000300
2765.6	-0.0000234
2763.6	-0.0000121
2761.7	-0.0000015
2759.8	-0.0000020
2757.8	-0.0000107
2755.9	-0.0000155
2754.0	-0.0000167
2752.1	-0.0000173
2750.1	-0.0000170
2748.2	-0.0000186
2746.3	-0.0000242
2744.3	-0.0000302
2742.4	-0.0000278
2740.5	-0.0000181
2738.6	-0.0000132
2736.6	-0.0000162
2734.7	-0.0000215
2732.8	-0.0000244
2730.8	-0.0000228
2728.9	-0.0000169
2727.0	-0.0000137
2725.1	-0.0000192
2723.1	-0.0000284
2721.2	-0.0000291
2719.3	-0.0000243
2717.3	-0.0000271
2715.4	-0.0000317
2713.5	-0.0000296
2711.6	-0.0000251
2709.6	-0.0000227
2707.7	-0.0000244
2705.8	-0.0000262
2703.8	-0.0000239
2701.9	-0.0000230
2700.0	-0.0000312
2698.1	-0.0000425
2696.1	-0.0000451
2694.2	-0.0000418
2692.3	-0.0000369
2690.3	-0.0000295
2688.4	-0.0000220
2686.5	-0.0000191
2684.6	-0.0000233
2682.6	-0.0000327
2680.7	-0.0000389
2678.8	-0.0000365
2676.8	-0.0000315
2674.9	-0.0000271
2673.0	-0.0000202
2671.1	-0.0000132
2669.1	-0.0000117
2667.2	-0.0000155
2665.3	-0.0000200
2663.3	-0.0000195
2661.4	-0.0000149
2659.5	-0.0000134
2657.6	-0.0000151
2655.6	-0.0000110
2653.7	-0.0000036
2651.8	-0.0000033
2649.8	-0.0000093
2647.9	-0.0000169
2646.0	-0.0000254
2644.1	-0.0000303
2642.1	-0.0000296
2640.2	-0.0000234
2638.3	-0.0000149
2636.3	-0.0000114
2634.4	-0.0000156
2632.5	-0.0000233
2630.6	-0.0000274
2628.6	-0.0000254
2626.7	-0.0000213
2624.8	-0.0000196
2622.8	-0.0000198
2620.9	-0.0000197
2619.0	-0.0000209
2617.1	-0.0000252
2615.1	-0.0000268
2613.2	-0.0000220
2611.3	-0.0000171
2609.3	-0.0000158
2607.4	-0.0000171
2605.5	-0.0000184
2603.6	-0.0000204
2601.6	-0.0000266
2599.7	-0.0000299
2597.8	-0.0000209
2595.8	-0.0000084
2593.9	-0.0000062
2592.0	-0.0000132
2590.1	-0.0000172
2588.1	-0.0000125
2586.2	-0.0000088
2584.3	-0.0000147
2582.3	-0.0000252
2580.4	-0.0000286
2578.5	-0.0000218
2576.6	-0.0000152
2574.6	-0.0000171
2572.7	-0.0000210
2570.8	-0.0000224
2568.8	-0.0000235
2566.9	-0.0000215
2565.0	-0.0000163
2563.1	-0.0000173
2561.1	-0.0000269
2559.2	-0.0000353
2557.3	-0.0000348
2555.3	-0.0000257
2553.4	-0.0000159
2551.5	-0.0000108
2549.6	-0.0000091
2547.6	-0.0000091
2545.7	-0.0000091
2543.8	-0.0000095
2541.8	-0.0000129
2539.9	-0.0000149
2538.0	-0.0000117
2536.1	-0.0000103
2534.1	-0.0000125
2532.2	-0.0000110
2530.3	-0.0000052
2528.3	-0.0000000
2526.4	0.0000020
2524.5	0.0000027
2522.6	0.0000020
2520.6	-0.0000012
2518.7	-0.0000054
2516.8	-0.0000047
2514.8	-0.0000001
2512.9	-0.0000011
2511.0	-0.0000055
2509.1	-0.0000034
2507.1	0.0000012
2505.2	-0.0000017
2503.3	-0.0000091
2501.3	-0.0000125
2499.4	-0.0000136
2497.5	-0.0000138
2495.6	-0.0000117
2493.6	-0.0000078
2491.7	-0.0000038
2489.8	-0.0000041
2487.8	-0.0000075
2485.9	-0.0000086
2484.0	-0.0000068
2482.1	-0.0000076
2480.1	-0.0000105
2478.2	-0.0000081
2476.3	-0.0000027
2474.3	-0.0000018
2472.4	-0.0000055
2470.5	-0.0000066
2468.6	-0.0000028
2466.6	-0.0000039
2464.7	-0.0000113
2462.8	-0.0000127
2460.8	-0.0000043
2458.9	0.0000058
2457.0	0.0000104
2455.1	0.0000088
2453.1	0.0000032
2451.2	-0.0000030
2449.3	-0.0000067
2447.3	-0.0000062
2445.4	-0.0000051
2443.5	-0.0000059
2441.6	-0.0000044
2439.6	-0.0000026
2437.7	-0.0000056
2435.8	-0.0000092
2433.8	-0.0000051
2431.9	0.0000012
2430.0	-0.0000002
2428.1	-0.0000043
2426.1	-0.0000028
2424.2	0.0000035
2422.3	0.0000077
2420.3	0.0000047
2418.4	-0.0000031
2416.5	-0.0000063
2414.6	-0.0000031
2412.6	-0.0000004
2410.7	0.0000021
2408.8	0.0000037
2406.8	0.0000002
2404.9	-0.0000048
2403.0	-0.0000061
2401.1	-0.0000041
2399.1	0.0000003
2397.2	0.0000037
2395.3	0.0000038
2393.3	0.0000023
2391.4	-0.0000023
2389.5	-0.0000099
2387.6	-0.0000120
2385.6	-0.0000099
2383.7	-0.0000128
2381.8	-0.0000181
2379.8	-0.0000196
2377.9	-0.0000207
2376.0	-0.0000269
2374.1	-0.0000409
2372.1	-0.0000630
2370.2	-0.0000868
2368.3	-0.0001050
2366.3	-0.0001165
2364.4	-0.0001232
2362.5	-0.0001238
2360.6	-0.0001181
2358.6	-0.0001079
2356.7	-0.0000929
2354.8	-0.0000733
2352.8	-0.0000523
2350.9	-0.0000341
2349.0	-0.0000274
2347.1	-0.0000373
2345.1	-0.0000547
2343.2	-0.0000688
2341.3	-0.0000800
2339.3	-0.0000893
2337.4	-0.0000895
2335.5	-0.0000778
2333.6	-0.0000660
2331.6	-0.0000664
2329.7	-0.0000709
2327.8	-0.0000648
2325.8	-0.0000494
2323.9	-0.0000346
2322.0	-0.0000263
2320.1	-0.0000253
2318.1	-0.0000242
2316.2	-0.0000172
2314.3	-0.0000075
2312.3	-0.0000017
2310.4	-0.0000029
2308.5	-0.0000071
2306.6	-0.0000071
2304.6	0.0000016
2302.7	0.0000117
2300.8	0.0000146
2298.8	0.0000129
2296.9	0.0000120
2295.0	0.0000121
2293.1	0.0000132
2291.1	0.0000146
2289.2	0.0000156
2287.3	0.0000190
2285.3	0.0000224
2283.4	0.0000172
2281.5	0.0000059
2279.6	0.0000028
2277.6	0.0000115
2275.7	0.0000207
2273.8	0.0000201
2271.8	0.0000153
2269.9	0.0000177
2268.0	0.0000228
2266.1	0.0000182
2264.1	0.0000085
2262.2	0.0000054
2260.3	0.0000082
2258.3	0.0000122
2256.4	0.0000176
2254.5	0.0000184
2252.6	0.0000105
2250.6	0.0000049
2248.7	0.0000065
2246.8	0.0000057
2244.8	-0.0000005
2242.9	-0.0000076
2241.0	-0.0000116
2239.1	-0.0000110
2237.1	-0.0000059
2235.2	-0.0000009
2233.3	0.0000002
2231.3	-0.0000009
2229.4	-0.0000041
2227.5	-0.0000111
2225.6	-0.0000160
2223.6	-0.0000113
2221.7	-0.0000053
2219.8	-0.0000075
2217.8	-0.0000141
2215.9	-0.0000197
2214.0	-0.0000224
2212.1	-0.0000203
2210.1	-0.0000167
2208.2	-0.0000164
2206.3	-0.0000158
2204.3	-0.0000100
2202.4	-0.0000033
2200.5	-0.0000009
2198.6	-0.0000004
2196.6	0.0000009
2194.7	0.0000023
2192.8	0.0000029
2190.8	0.0000021
2188.9	-0.0000007
2187.0	-0.0000024
2185.1	0.0000002
2183.1	0.0000011
2181.2	-0.0000039
2179.3	-0.0000096
2177.3	-0.0000105
2175.4	-0.0000091
2173.5	-0.0000103
2171.6	-0.0000120
2169.6	-0.0000129
2167.7	-0.0000137
2165.8	-0.0000137
2163.8	-0.0000138
2161.9	-0.0000138
2160.0	-0.0000138
2158.1	-0.0000154
2156.1	-0.0000184
2154.2	-0.0000187
2152.3	-0.0000142
2150.3	-0.0000100
2148.4	-0.0000091
2146.5	-0.0000064
2144.6	-0.0000042
2142.6	-0.0000085
2140.7	-0.0000127
2138.8	-0.0000128
2136.8	-0.0000131
2134.9	-0.0000130
2133.0	-0.0000109
2131.1	-0.0000082
2129.1	-0.0000051
2127.2	-0.0000012
2125.3	-0.0000000
2123.3	-0.0000019
2121.4	-0.0000006
2119.5	0.0000040
2117.6	0.0000058
2115.6	0.0000051
2113.7	0.0000026
2111.8	-0.0000014
2109.8	-0.0000031
2107.9	-0.0000019
2106.0	-0.0000004
2104.1	0.0000009
2102.1	0.0000015
2100.2	0.0000001
2098.3	-0.0000046
2096.3	-0.0000161
2094.4	-0.0000427
2092.5	-0.0000921
2090.6	-0.0001692
2088.6	-0.0002585
2086.7	-0.0002997
2084.8	-0.0002402
2082.8	-0.0001020
2080.9	0.0000622
2079.0	0.0002461
2077.1	0.0005009
2075.1	0.0008909
2073.2	0.0014385
2071.3	0.0020751
2069.3	0.0026426
2067.4	0.0029867
2065.5	0.0030642
2063.6	0.0029396
2061.6	0.0027044
2059.7	0.0024295
2057.8	0.0021570
2055.8	0.0019030
2053.9	0.0016722
2052.0	0.0014670
2050.1	0.0012909
2048.1	0.0011445
2046.2	0.0010225
2044.3	0.0009186
2042.3	0.0008303
2040.4	0.0007538
2038.5	0.0006836
2036.6	0.0006178
2034.6	0.0005609
2032.7	0.0005133
2030.8	0.0004696
2028.8	0.0004292
2026.9	0.0003934
2025.0	0.0003578
2023.1	0.0003225
2021.1	0.0002929
2019.2	0.0002710
2017.3	0.0002538
2015.3	0.0002336
2013.4	0.0002080
2011.5	0.0001824
2009.6	0.0001568
2007.6	0.0001310
2005.7	0.0001104
2003.8	0.0000941
2001.8	0.0000766
1999.9	0.0000587
1998.0	0.0000424
1996.1	0.0000280
1994.1	0.0000207
1992.2	0.0000210
1990.3	0.0000196
1988.3	0.0000129
1986.4	0.0000064
1984.5	0.0000034
1982.6	0.0000028
1980.6	0.0000031
1978.7	0.0000028
1976.8	0.0000016
1974.8	0.0000013
1972.9	0.0000038
1971.0	0.0000087
1969.1	0.0000101
1967.1	0.0000040
1965.2	-0.0000051
1963.3	-0.0000138
1961.4	-0.0000201
1959.4	-0.0000194
1957.5	-0.0000130
1955.6	-0.0000095
1953.6	-0.0000113
1951.7	-0.0000124
1949.8	-0.0000093
1947.9	-0.0000059
1945.9	-0.0000061
1944.0	-0.0000066
1942.1	-0.0000061
1940.1	-0.0000087
1938.2	-0.0000138
1936.3	-0.0000169
1934.4	-0.0000149
1932.4	-0.0000091
1930.5	-0.0000060
1928.6	-0.0000090
1926.6	-0.0000127
1924.7	-0.0000122
1922.8	-0.0000071
1920.9	0.0000031
1918.9	0.0000148
1917.0	0.0000172
1915.1	0.0000085
1913.1	0.0000010
1911.2	0.0000033
1909.3	0.0000092
1907.4	0.0000107
1905.4	0.0000089
1903.5	0.0000107
1901.6	0.0000199
1899.6	0.0000320
1897.7	0.0000418
1895.8	0.0000486
1893.9	0.0000525
1891.9	0.0000564
1890.0	0.0000620
1888.1	0.0000671
1886.1	0.0000709
1884.2	0.0000739
1882.3	0.0000772
1880.4	0.0000812
1878.4	0.0000860
1876.5	0.0000942
1874.6	0.0001067
1872.6	0.0001272
1870.7	0.0001574
1868.8	0.0001791
1866.9	0.0001819
1864.9	0.0001859
1863.0	0.0002010
1861.1	0.0002183
1859.1	0.0002354
1857.2	0.0002511
1855.3	0.0002611
1853.4	0.0002649
1851.4	0.0002625
1849.5	0.0002581
1847.6	0.0002659
1845.6	0.0002855
1843.7	0.0002877
1841.8	0.0002650
1839.9	0.0002428
1837.9	0.0002319
1836.0	0.0002240
1834.1	0.0002145
1832.1	0.0002029
1830.2	0.0001886
1828.3	0.0001718
1826.4	0.0001555
1824.4	0.0001395
1822.5	0.0001223
1820.6	0.0001064
1818.6	0.0000949
1816.7	0.0000888
1814.8	0.0000851
1812.9	0.0000787
1810.9	0.0000698
1809.0	0.0000622
1807.1	0.0000578
1805.1	0.0000517
1803.2	0.0000395
1801.3	0.0000293
1799.4	0.0000255
1797.4	0.0000242
1795.5	0.0000245
1793.6	0.0000198
1791.6	0.0000058
1789.7	-0.0000030
1787.8	0.0000031
1785.9	0.0000130
1783.9	0.0000158
1782.0	0.0000150
1780.1	0.0000164
1778.1	0.0000179
1776.2	0.0000270
1774.3	0.0000506
1772.4	0.0000603
1770.4	0.0000325
1768.5	0.0000025
1766.6	0.0000041
1764.6	0.0000195
1762.7	0.0000256
1760.8	0.0000195
1758.9	0.0000057
1756.9	-0.0000020
1755.0	0.0000068
1753.1	0.0000211
1751.1	0.0000238
1749.2	0.0000144
1747.3	0.0000073
1745.4	0.0000071
1743.4	0.0000068
1741.5	0.0000066
1739.6	0.0000095
1737.6	0.0000199
1735.7	0.0000341
1733.8	0.0000319
1731.9	0.0000159
1729.9	0.0000102
1728.0	0.0000149
1726.1	0.0000176
1724.1	0.0000179
1722.2	0.0000219
1720.3	0.0000443
1718.4	0.0000845
1716.4	0.0000993
1714.5	0.0000728
1712.6	0.0000398
1710.6	0.0000223
1708.7	0.0000257
1706.8	0.0000456
1704.9	0.0000601
1702.9	0.0000522
1701.0	0.0000319
1699.1	0.0000167
1697.1	0.0000071
1695.2	0.0000026
1693.3	0.0000014
1691.4	-0.0000036
1689.4	0.0000003
1687.5	0.0000436
1685.6	0.0001036
1683.6	0.0001055
1681.7	0.0000567
1679.8	0.0000251
1677.9	0.0000265
1675.9	0.0000390
1674.0	0.0000413
1672.1	0.0000358
1670.1	0.0000345
1668.2	0.0000297
1666.3	0.0000217
1664.4	0.0000203
1662.4	0.0000197
1660.5	0.0000147
1658.6	0.0000125
1656.6	0.0000419
1654.7	0.0001254
1652.8	0.0001834
1650.9	0.0001458
1648.9	0.0001027
1647.0	0.0001070
1645.1	0.0000970
1643.1	0.0000689
1641.2	0.0000631
1639.3	0.0000686
1637.4	0.0000688
1635.4	0.0000751
1633.5	0.0000939
1631.6	0.0001113
1629.6	0.0001099
1627.7	0.0000949
1625.8	0.0000831
1623.9	0.0000734
1621.9	0.0000652
1620.0	0.0000793
1618.1	0.0001193
1616.1	0.0001356
1614.2	0.0001072
1612.3	0.0000787
1610.4	0.0000675
1608.4	0.0000558
1606.5	0.0000426
1604.6	0.0000357
1602.6	0.0000358
1600.7	0.0000389
1598.8	0.0000424
1596.9	0.0000426
1594.9	0.0000394
1593.0	0.0000396
1591.1	0.0000395
1589.1	0.0000345
1587.2	0.0000291
1585.3	0.0000218
1583.4	0.0000135
1581.4	0.0000164
1579.5	0.0000483
1577.6	0.0001020
1575.6	0.0001220
1573.7	0.0000956
1571.8	0.0000785
1569.9	0.0000756
1567.9	0.0000602
1566.0	0.0000442
1564.1	0.0000290
1562.1	0.0000060
1560.2	0.0000028
1558.3	0.0000266
1556.4	0.0000391
1554.4	0.0000283
1552.5	0.0000149
1550.6	0.0000116
1548.6	0.0000184
1546.7	0.0000321
1544.8	0.0000568
1542.9	0.0000886
1540.9	0.0000941
1539.0	0.0000608
1537.1	0.0000374
1535.1	0.0000472
1533.2	0.0000515
1531.3	0.0000342
1529.4	0.0000150
1527.4	0.0000023
1525.5	-0.0000040
1523.6	-0.0000047
1521.6	-0.0000046
1519.7	-0.0000028
1517.8	-0.0000039
1515.9	-0.0000129
1513.9	-0.0000203
1512.0	-0.0000099
1510.1	0.0000363
1508.1	0.0001088
1506.2	0.0001416
1504.3	0.0000960
1502.4	0.0000380
1500.4	0.0000246
1498.5	0.0000259
1496.6	0.0000176
1494.6	0.0000180
1492.7	0.0000330
1490.8	0.0000504
1488.9	0.0000619
1486.9	0.0000631
1485.0	0.0000580
1483.1	0.0000569
1481.1	0.0000634
1479.2	0.0000725
1477.3	0.0000688
1475.4	0.0000475
1473.4	0.0000328
1471.5	0.0000326
1469.6	0.0000312
1467.6	0.0000414
1465.7	0.0000736
1463.8	0.0000993
1461.9	0.0000972
1459.9	0.0000842
1458.0	0.0000751
1456.1	0.0000536
1454.1	0.0000186
1452.2	0.0000022
1450.3	0.0000129
1448.4	0.0000289
1446.4	0.0000309
1444.5	0.0000239
1442.6	0.0000259
1440.6	0.0000401
1438.7	0.0000549
1436.8	0.0000977
1434.9	0.0002041
1432.9	0.0002387
1431.0	0.0000963
1429.1	-0.0000285
1427.1	-0.0000088
1425.2	0.0000375
1423.3	0.0000524
1421.4	0.0000613
1419.4	0.0000556
1417.5	0.0000348
1415.6	0.0000216
1413.6	0.0000167
1411.7	0.0000076
1409.8	0.0000012
1407.9	0.0000046
1405.9	0.0000090
1404.0	0.0000079
1402.1	0.0000107
1400.1	0.0000213
1398.2	0.0000269
1396.3	0.0000270
1394.4	0.0000242
1392.4	0.0000135
1390.5	0.0000001
1388.6	-0.0000070
1386.6	-0.0000078
1384.7	-0.0000054
1382.8	-0.0000032
1380.9	-0.0000029
1378.9	0.0000000
1377.0	0.0000066
1375.1	0.0000095
1373.1	0.0000086
1371.2	0.0000104
1369.3	0.0000158
1367.4	0.0000231
1365.4	0.0000292
1363.5	0.0000335
1361.6	0.0000387
1359.6	0.0000387
1357.7	0.0000256
1355.8	0.0000077
1353.9	0.0000019
1351.9	0.0000130
1350.0	0.0000255
1348.1	0.0000255
1346.1	0.0000154
1344.2	0.0000039
1342.3	-0.0000026
1340.4	-0.0000052
1338.4	-0.0000068
1336.5	-0.0000007
1334.6	0.0000144
1332.6	0.0000288
1330.7	0.0000365
1328.8	0.0000343
1326.9	0.0000264
1324.9	0.0000205
1323.0	0.0000130
1321.1	0.0000058
1319.1	0.0000026
1317.2	-0.0000026
1315.3	-0.0000062
1313.4	0.0000007
1311.4	0.0000110
1309.5	0.0000103
1307.6	0.0000005
1305.6	-0.0000058
1303.7	-0.0000079
1301.8	-0.0000094
1299.9	-0.0000125
1297.9	-0.0000141
1296.0	-0.0000083
1294.1	-0.0000039
1292.1	-0.0000040
1290.2	0.0000037
1288.3	0.0000131
1286.4	0.0000133
1284.4	0.0000102
1282.5	0.0000117
1280.6	0.0000159
1278.6	0.0000126
1276.7	0.0000026
1274.8	-0.0000002
1272.9	0.0000032
1270.9	0.0000028
1269.0	-0.0000019
1267.1	-0.0000061
1265.1	-0.0000035
1263.2	0.0000070
1261.3	0.0000186
1259.4	0.0000275
1257.4	0.0000319
1255.5	0.0000281
1253.6	0.0000228
1251.6	0.0000247
1249.7	0.0000278
1247.8	0.0000281
1245.9	0.0000277
1243.9	0.0000279
1242.0	0.0000329
1240.1	0.0000387
1238.1	0.0000358
1236.2	0.0000290
1234.3	0.0000240
1232.4	0.0000185
1230.4	0.0000184
1228.5	0.0000239
1226.6	0.0000227
1224.6	0.0000178
1222.7	0.0000249
1220.8	0.0000355
1218.9	0.0000306
1216.9	0.0000214
1215.0	0.0000251
1213.1	0.0000320
1211.1	0.0000307
1209.2	0.0000232
1207.3	0.0000178
1205.4	0.0000250
1203.4	0.0000393
1201.5	0.0000490
1199.6	0.0000529
1197.6	0.0000521
1195.7	0.0000524
1193.8	0.0000559
1191.9	0.0000553
1189.9	0.0000496
1188.0	0.0000450
1186.1	0.0000418
1184.1	0.0000284
1182.2	0.0000082
1180.3	0.0000144
1178.4	0.0000436
1176.4	0.0000537
1174.5	0.0000418
1172.6	0.0000269
1170.6	0.0000139
1168.7	0.0000054
1166.8	0.0000050
1164.9	0.0000093
1162.9	0.0000140
1161.0	0.0000135
1159.1	0.0000102
1157.1	0.0000142
1155.2	0.0000209
1153.3	0.0000142
1151.4	-0.0000024
1149.4	-0.0000109
1147.5	-0.0000106
1145.6	-0.0000156
1143.6	-0.0000208
1141.7	-0.0000103
1139.8	0.0000098
1137.9	0.0000164
1135.9	0.0000071
1134.0	-0.0000005
1132.1	0.0000023
1130.1	0.0000105
1128.2	0.0000127
1126.3	0.0000073
1124.4	0.0000094
1122.4	0.0000198
1120.5	0.0000227
1118.6	0.0000172
1116.6	0.0000155
1114.7	0.0000152
1112.8	0.0000050
1110.9	-0.0000044
1108.9	0.0000023
1107.0	0.0000172
1105.1	0.0000253
1103.1	0.0000263
1101.2	0.0000247
1099.3	0.0000212
1097.4	0.0000183
1095.4	0.0000175
1093.5	0.0000251
1091.6	0.0000335
1089.6	0.0000260
1087.7	0.0000158
1085.8	0.0000206
1083.9	0.0000302
1081.9	0.0000250
1080.0	0.0000017
1078.1	-0.0000194
1076.1	-0.0000186
1074.2	-0.0000036
1072.3	0.0000078
1070.4	0.0000133
1068.4	0.0000122
1066.5	0.0000056
1064.6	-0.0000002
1062.6	-0.0000058
1060.7	-0.0000035
1058.8	0.0000142
1056.9	0.0000362
1054.9	0.0000491
1053.0	0.0000490
1051.1	0.0000410
1049.1	0.0000341
1047.2	0.0000325
1045.3	0.0000321
1043.4	0.0000265
1041.4	0.0000168
1039.5	0.0000159
1037.6	0.0000252
1035.6	0.0000303
1033.7	0.0000305
1031.8	0.0000351
1029.9	0.0000452
1027.9	0.0000592
1026.0	0.0000716
1024.1	0.0000774
1022.1	0.0000773
1020.2	0.0000788
1018.3	0.0000887
1016.4	0.0000962
1014.4	0.0000922
1012.5	0.0000912
1010.6	0.0000973
1008.6	0.0000967
1006.7	0.0000849
1004.8	0.0000735
1002.9	0.0000740
1000.9	0.0000804
999.0	0.0000837
997.1	0.0000876
995.1	0.0000930
993.2	0.0000931
991.3	0.0000909
989.4	0.0000963
987.4	0.0001058
985.5	0.0001141
983.6	0.0001290
981.6	0.0001475
979.7	0.0001489
977.8	0.0001346
975.9	0.0001307
973.9	0.0001415
972.0	0.0001480
970.1	0.0001387
968.1	0.0001230
966.2	0.0001117
964.3	0.0001000
962.4	0.0000920
960.4	0.0001008
958.5	0.0001184
956.6	0.0001246
954.6	0.0001137
952.7	0.0000951
950.8	0.0000800
948.9	0.0000752
946.9	0.0000746
945.0	0.0000722
943.1	0.0000766
941.1	0.0000900
939.2	0.0000999
937.3	0.0000957
935.4	0.0000829
933.4	0.0000785
931.5	0.0000847
929.6	0.0000781
927.6	0.0000554
925.7	0.0000450
923.8	0.0000477
921.9	0.0000472
919.9	0.0000488
918.0	0.0000489
916.1	0.0000321
914.1	0.0000111
912.2	0.0000072
910.3	0.0000110
908.4	0.0000171
906.4	0.0000348
904.5	0.0000536
902.6	0.0000503
900.6	0.0000260
898.7	0.0000034
896.8	-0.0000040
894.9	0.0000030
892.9	0.0000183
891.0	0.0000330
889.1	0.0000378
887.1	0.0000364
885.2	0.0000485
883.3	0.0000601
881.4	0.0000421
879.4	0.0000125
877.5	0.0000084
875.6	0.0000245
873.6	0.0000239
871.7	0.0000065
869.8	-0.0000048
867.9	-0.0000136
865.9	-0.0000249
864.0	-0.0000202
862.1	0.0000066
860.1	0.0000251
858.2	0.0000242
856.3	0.0000292
854.4	0.0000490
852.4	0.0000721
850.5	0.0000948
848.6	0.0001132
846.6	0.0001046
844.7	0.0000687
842.8	0.0000489
840.9	0.0000628
838.9	0.0000708
837.0	0.0000506
835.1	0.0000337
833.1	0.0000294
831.2	0.0000178
829.3	0.0000057
827.4	0.0000162
825.4	0.0000362
823.5	0.0000351
821.6	0.0000198
819.6	0.0000127
817.7	0.0000280
815.8	0.0000430
813.9	0.0000219
811.9	-0.0000165
810.0	-0.0000365
808.1	-0.0000245
806.1	0.0000185
804.2	0.0000646
802.3	0.0000639
800.4	0.0000382
798.4	0.0000477
796.5	0.0000823
794.6	0.0001155
792.6	0.0001270
790.7	0.0000989
788.8	0.0000644
786.9	0.0000724
784.9	0.0001001
783.0	0.0000987
781.1	0.0000828
779.1	0.0000651
777.2	0.0000520
775.3	0.0000529
773.4	0.0000611
771.4	0.0000806
769.5	0.0001204
767.6	0.0001828
765.6	0.0002539
763.7	0.0002768
761.8	0.0001929
759.9	0.0000776
757.9	0.0000283
756.0	0.0000114
754.1	0.0000226
752.1	0.0000652
750.2	0.0000811
748.3	0.0000567
746.4	0.0000252
744.4	0.0000084
742.5	0.0000113
740.6	-0.0000189
738.6	-0.0001541
736.7	-0.0002942
734.8	-0.0003032
732.9	-0.0002274
730.9	-0.0001646
729.0	-0.0001244
727.1	-0.0000873
725.1	-0.0000748
723.2	-0.0000682
721.3	-0.0000803
719.4	-0.0000487
717.4	0.0001843
715.5	0.0003946
713.6	0.0003078
711.6	0.0001112
709.7	0.0000085
707.8	-0.0000355
705.9	-0.0000792
703.9	-0.0001218
702.0	-0.0001181
700.1	-0.0000206
698.1	0.0001126
696.2	0.0001270
694.3	0.0000303
692.4	0.0000222
690.4	0.0000980
688.5	0.0000835
686.6	0.0000211
684.6	0.0000057
682.7	-0.0000155
680.8	-0.0000685
678.9	-0.0000690
676.9	-0.0000271
675.0	-0.0000658
673.1	-0.0001405
671.1	-0.0000737
669.2	0.0000475
667.3	0.0000170
665.4	-0.0000153
663.4	0.0000539
661.5	0.0000114
659.6	-0.0001912
657.6	-0.0003802
655.7	-0.0003903
653.8	-0.0001943
651.9	0.0000507
649.9	0.0001704
648.0	0.0002040
646.1	0.0002286
644.1	0.0001885
642.2	0.0000684
640.3	-0.0001272
638.4	-0.0002900
636.4	-0.0002302
634.5	-0.0000040
632.6	0.0001392
630.6	0.0001894
628.7	0.0002061
626.8	0.0001013
624.9	0.0000353
622.9	0.0000578
621.0	0.0000388
619.1	0.0000715
617.1	0.0002197
615.2	0.0003090
613.3	0.0001089
611.4	-0.0002382
609.4	-0.0004246
607.5	-0.0003218
605.6	-0.0001138
603.6	-0.0000742
601.7	-0.0001056
599.8	-0.0000584
597.9	0.0000617
595.9	0.0000981
594.0	0.0000317
592.1	-0.0000351
590.1	-0.0000936
588.2	-0.0000179
586.3	0.0001995
584.4	0.0003477
582.4	0.0002086
580.5	-0.0000465
578.6	-0.0001994
576.6	-0.0003631
574.7	-0.0005181
572.8	-0.0004656
570.9	-0.0001053
568.9	0.0002077
567.0	0.0003116
565.1	0.0003020
563.1	0.0002139
561.2	0.0002165
559.3	0.0002308
557.4	0.0003046
555.4	0.0004968
553.5	0.0005679
551.6	0.0003058
549.6	-0.0000429
547.7	-0.0000926
545.8	0.0001126
543.9	0.0004900
541.9	0.0005699
540.0	0.0004965
538.1	0.0010425
536.1	0.0020750
534.2	0.0025362
532.3	0.0013899
530.4	-0.0004290
528.4	-0.0011786
526.5	-0.0011426
524.6	-0.0014815
522.6	-0.0002863
520.7	0.0030152
518.8	0.0035345
516.9	-0.0025339
514.9	-0.0153941
513.0	-0.0261340
511.1	-0.0245522
509.1	-0.0147174
507.2	-0.0028694
505.3	0.0050107
503.4	0.0035234
501.4	-0.0010739
499.5	-0.0023497
497.6	-0.0013874
495.6	0.0002378
493.7	0.0011478
491.8	0.0006074
489.9	-0.0001932
487.9	-0.0004367
486.0	-0.0004554
484.1	0.0000152
482.1	0.0009012
480.2	0.0014193
478.3	0.0012174
476.4	0.0003535
474.4	-0.0004271
472.5	-0.0005941
470.6	-0.0003724
468.6	0.0000601
466.7	0.0005204
464.8	0.0006824
462.9	0.0005282
460.9	0.0002669
459.0	-0.0001263
457.1	-0.0003996
455.1	-0.0001200
453.2	0.0000702
451.3	-0.0003780
449.4	-0.0006225
447.4	-0.0002820
445.5	0.0001489
443.6	0.0003299
441.6	0.0002106
439.7	0.0002203
437.8	0.0005628
435.9	0.0008307
433.9	0.0008595
432.0	0.0007770
430.1	0.0004002
428.1	-0.0001666
426.2	-0.0005653
424.3	-0.0007265
422.4	-0.0005475
420.4	-0.0002099
418.5	0.0001173
416.6	0.0004974
414.6	0.0007344
412.7	0.0005988
410.8	0.0002804
408.9	0.0000800
406.9	-0.0000095
405.0	0.0000545
403.1	0.0000567
401.1	-0.0001534
399.2	-0.0002916
397.3	-0.0000385
395.4	0.0006109
393.4	0.0010504
391.5	0.0008745
389.6	0.0001754
387.6	-0.0005041
385.7	-0.0009358
383.8	-0.0010727
381.9	-0.0006786
379.9	-0.0002336
378.0	-0.0000764
376.1	-0.0000859
374.1	-0.0000351
372.2	0.0002273
370.3	0.0008024
368.4	0.0017479
