3997.9	-0.0000604
3996.0	-0.0000610
3994.1	-0.0000575
3992.1	-0.0000464
3990.2	-0.0000271
3988.3	-0.0000126
3986.3	-0.0000156
3984.4	-0.0000257
3982.5	-0.0000286
3980.6	-0.0000272
3978.6	-0.0000267
3976.7	-0.0000225
3974.8	-0.0000100
3972.8	0.0000057
3970.9	0.0000180
3969.0	0.0000253
3967.1	0.0000267
3965.1	0.0000336
3963.2	0.0000465
3961.3	0.0000519
3959.3	0.0000487
3957.4	0.0000473
3955.5	0.0000439
3953.6	0.0000327
3951.6	0.0000176
3949.7	0.0000004
3947.8	-0.0000135
3945.8	-0.0000115
3943.9	0.0000044
3942.0	0.0000220
3940.1	0.0000352
3938.1	0.0000410
3936.2	0.0000382
3934.3	0.0000308
3932.3	0.0000282
3930.4	0.0000323
3928.5	0.0000329
3926.6	0.0000263
3924.6	0.0000205
3922.7	0.0000173
3920.8	0.0000143
3918.8	0.0000132
3916.9	0.0000158
3915.0	0.0000239
3913.1	0.0000359
3911.1	0.0000385
3909.2	0.0000308
3907.3	0.0000273
3905.3	0.0000279
3903.4	0.0000250
3901.5	0.0000243
3899.6	0.0000293
3897.6	0.0000313
3895.7	0.0000285
3893.8	0.0000286
3891.8	0.0000372
3889.9	0.0000468
3888.0	0.0000454
3886.1	0.0000363
3884.1	0.0000323
3882.2	0.0000287
3880.3	0.0000155
3878.3	0.0000039
3876.4	0.0000082
3874.5	0.0000180
3872.6	0.0000188
3870.6	0.0000145
3868.7	0.0000150
3866.8	0.0000201
3864.8	0.0000291
3862.9	0.0000409
3861.0	0.0000460
3859.1	0.0000421
3857.1	0.0000288
3855.2	0.0000092
3853.3	0.0000053
3851.3	0.0000227
3849.4	0.0000344
3847.5	0.0000320
3845.6	0.0000267
3843.6	0.0000197
3841.7	0.0000083
3839.8	-0.0000049
3837.8	-0.0000083
3835.9	0.0000098
3834.0	0.0000342
3832.1	0.0000435
3830.1	0.0000395
3828.2	0.0000356
3826.3	0.0000383
3824.3	0.0000406
3822.4	0.0000355
3820.5	0.0000306
3818.6	0.0000259
3816.6	0.0000151
3814.7	0.0000106
3812.8	0.0000217
3810.8	0.0000300
3808.9	0.0000247
3807.0	0.0000208
3805.1	0.0000236
3803.1	0.0000202
3801.2	0.0000128
3799.3	0.0000098
3797.3	0.0000152
3795.4	0.0000274
3793.5	0.0000319
3791.6	0.0000306
3789.6	0.0000382
3787.7	0.0000488
3785.8	0.0000526
3783.8	0.0000500
3781.9	0.0000415
3780.0	0.0000326
3778.1	0.0000312
3776.1	0.0000336
3774.2	0.0000317
3772.3	0.0000278
3770.3	0.0000260
3768.4	0.0000244
3766.5	0.0000268
3764.6	0.0000355
3762.6	0.0000365
3760.7	0.0000266
3758.8	0.0000234
3756.8	0.0000261
3754.9	0.0000161
3753.0	0.0000004
3751.1	0.0000012
3749.1	0.0000138
3747.2	0.0000137
3745.3	0.0000028
3743.3	0.0000041
3741.4	0.0000144
3739.5	0.0000120
3737.6	-0.0000012
3735.6	-0.0000038
3733.7	0.0000068
3731.8	0.0000165
3729.8	0.0000197
3727.9	0.0000200
3726.0	0.0000200
3724.1	0.0000142
3722.1	0.0000056
3720.2	0.0000065
3718.3	0.0000147
3716.3	0.0000190
3714.4	0.0000148
3712.5	0.0000079
3710.6	0.0000059
3708.6	0.0000055
3706.7	0.0000051
3704.8	0.0000061
3702.8	0.0000049
3700.9	0.0000009
3699.0	-0.0000009
3697.1	0.0000015
3695.1	0.0000071
3693.2	0.0000087
3691.3	0.0000009
3689.3	-0.0000064
3687.4	-0.0000044
3685.5	0.0000036
3683.6	0.0000135
3681.6	0.0000163
3679.7	0.0000017
3677.8	-0.0000206
3675.8	-0.0000281
3673.9	-0.0000159
3672.0	-0.0000026
3670.1	-0.0000004
3668.1	-0.0000011
3666.2	0.0000013
3664.3	0.0000020
3662.3	-0.0000003
3660.4	-0.0000000
3658.5	0.0000058
3656.6	0.0000130
3654.6	0.0000133
3652.7	0.0000047
3650.8	-0.0000061
3648.8	-0.0000100
3646.9	-0.0000040
3645.0	0.0000052
3643.1	0.0000172
3641.1	0.0000310
3639.2	0.0000310
3637.3	0.0000124
3635.3	-0.0000012
3633.4	0.0000027
3631.5	0.0000061
3629.6	0.0000015
3627.6	0.0000055
3625.7	0.0000157
3623.8	0.0000198
3621.8	0.0000194
3619.9	0.0000191
3618.0	0.0000170
3616.1	0.0000149
3614.1	0.0000103
3612.2	0.0000023
3610.3	-0.0000006
3608.3	0.0000048
3606.4	0.0000121
3604.5	0.0000116
3602.6	0.0000004
3600.6	-0.0000099
3598.7	-0.0000134
3596.8	-0.0000158
3594.8	-0.0000109
3592.9	0.0000020
3591.0	0.0000046
3589.1	-0.0000039
3587.1	-0.0000061
3585.2	0.0000002
3583.3	0.0000049
3581.3	0.0000059
3579.4	0.0000121
3577.5	0.0000216
3575.6	0.0000188
3573.6	0.0000095
3571.7	0.0000033
3569.8	-0.0000088
3567.8	-0.0000205
3565.9	-0.0000176
3564.0	-0.0000064
3562.1	0.0000034
3560.1	0.0000046
3558.2	-0.0000015
3556.3	-0.0000050
3554.3	-0.0000050
3552.4	-0.0000082
3550.5	-0.0000128
3548.6	-0.0000101
3546.6	-0.0000011
3544.7	0.0000044
3542.8	0.0000041
3540.8	-0.0000003
3538.9	-0.0000095
3537.0	-0.0000178
3535.1	-0.0000138
3533.1	-0.0000060
3531.2	-0.0000113
3529.3	-0.0000199
3527.3	-0.0000156
3525.4	-0.0000035
3523.5	0.0000025
3521.6	-0.0000004
3519.6	-0.0000039
3517.7	-0.0000055
3515.8	-0.0000139
3513.8	-0.0000275
3511.9	-0.0000303
3510.0	-0.0000241
3508.1	-0.0000222
3506.1	-0.0000213
3504.2	-0.0000179
3502.3	-0.0000165
3500.3	-0.0000184
3498.4	-0.0000165
3496.5	-0.0000077
3494.6	-0.0000045
3492.6	-0.0000113
3490.7	-0.0000164
3488.8	-0.0000165
3486.8	-0.0000156
3484.9	-0.0000155
3483.0	-0.0000167
3481.1	-0.0000161
3479.1	-0.0000113
3477.2	-0.0000088
3475.3	-0.0000137
3473.3	-0.0000200
3471.4	-0.0000146
3469.5	0.0000017
3467.6	0.0000106
3465.6	0.0000049
3463.7	-0.0000104
3461.8	-0.0000251
3459.8	-0.0000297
3457.9	-0.0000250
3456.0	-0.0000175
3454.1	-0.0000124
3452.1	-0.0000087
3450.2	-0.0000044
3448.3	-0.0000039
3446.3	-0.0000079
3444.4	-0.0000098
3442.5	-0.0000037
3440.6	0.0000093
3438.6	0.0000214
3436.7	0.0000246
3434.8	0.0000176
3432.8	0.0000106
3430.9	0.0000123
3429.0	0.0000160
3427.1	0.0000133
3425.1	0.0000072
3423.2	0.0000043
3421.3	0.0000083
3419.3	0.0000164
3417.4	0.0000193
3415.5	0.0000187
3413.6	0.0000260
3411.6	0.0000354
3409.7	0.0000327
3407.8	0.0000250
3405.8	0.0000253
3403.9	0.0000313
3402.0	0.0000337
3400.1	0.0000310
3398.1	0.0000248
3396.2	0.0000153
3394.3	0.0000112
3392.3	0.0000174
3390.4	0.0000262
3388.5	0.0000319
3386.6	0.0000348
3384.6	0.0000377
3382.7	0.0000385
3380.8	0.0000303
3378.8	0.0000192
3376.9	0.0000125
3375.0	0.0000091
3373.1	0.0000134
3371.1	0.0000273
3369.2	0.0000414
3367.3	0.0000493
3365.3	0.0000472
3363.4	0.0000357
3361.5	0.0000289
3359.6	0.0000356
3357.6	0.0000431
3355.7	0.0000402
3353.8	0.0000338
3351.8	0.0000259
3349.9	0.0000108
3348.0	0.0000004
3346.1	0.0000094
3344.1	0.0000290
3342.2	0.0000444
3340.3	0.0000518
3338.3	0.0000559
3336.4	0.0000578
3334.5	0.0000523
3332.6	0.0000393
3330.6	0.0000279
3328.7	0.0000212
3326.8	0.0000130
3324.8	0.0000062
3322.9	0.0000074
3321.0	0.0000151
3319.1	0.0000274
3317.1	0.0000382
3315.2	0.0000366
3313.3	0.0000265
3311.3	0.0000238
3309.4	0.0000277
3307.5	0.0000252
3305.6	0.0000154
3303.6	0.0000101
3301.7	0.0000154
3299.8	0.0000211
3297.8	0.0000202
3295.9	0.0000175
3294.0	0.0000171
3292.1	0.0000194
3290.1	0.0000226
3288.2	0.0000253
3286.3	0.0000332
3284.3	0.0000412
3282.4	0.0000369
3280.5	0.0000292
3278.6	0.0000333
3276.6	0.0000399
3274.7	0.0000385
3272.8	0.0000379
3270.8	0.0000419
3268.9	0.0000417
3267.0	0.0000405
3265.1	0.0000429
3263.1	0.0000412
3261.2	0.0000336
3259.3	0.0000250
3257.3	0.0000158
3255.4	0.0000072
3253.5	0.0000043
3251.6	0.0000100
3249.6	0.0000193
3247.7	0.0000273
3245.8	0.0000343
3243.8	0.0000353
3241.9	0.0000282
3240.0	0.0000267
3238.1	0.0000357
3236.1	0.0000393
3234.2	0.0000321
3232.3	0.0000240
3230.3	0.0000178
3228.4	0.0000179
3226.5	0.0000257
3224.6	0.0000261
3222.6	0.0000198
3220.7	0.0000213
3218.8	0.0000265
3216.8	0.0000231
3214.9	0.0000160
3213.0	0.0000178
3211.1	0.0000222
3209.1	0.0000181
3207.2	0.0000122
3205.3	0.0000133
3203.3	0.0000186
3201.4	0.0000176
3199.5	0.0000121
3197.6	0.0000139
3195.6	0.0000221
3193.7	0.0000286
3191.8	0.0000302
3189.8	0.0000259
3187.9	0.0000184
3186.0	0.0000150
3184.1	0.0000164
3182.1	0.0000177
3180.2	0.0000189
3178.3	0.0000238
3176.3	0.0000287
3174.4	0.0000269
3172.5	0.0000242
3170.6	0.0000289
3168.6	0.0000421
3166.7	0.0000594
3164.8	0.0000747
3162.8	0.0000876
3160.9	0.0000992
3159.0	0.0001082
3157.1	0.0001188
3155.1	0.0001313
3153.2	0.0001417
3151.3	0.0001511
3149.3	0.0001643
3147.4	0.0001817
3145.5	0.0001968
3143.6	0.0002055
3141.6	0.0002130
3139.7	0.0002216
3137.8	0.0002259
3135.8	0.0002286
3133.9	0.0002324
3132.0	0.0002290
3130.1	0.0002134
3128.1	0.0001982
3126.2	0.0001962
3124.3	0.0001997
3122.3	0.0001991
3120.4	0.0001972
3118.5	0.0001930
3116.6	0.0001829
3114.6	0.0001725
3112.7	0.0001648
3110.8	0.0001558
3108.8	0.0001418
3106.9	0.0001198
3105.0	0.0000941
3103.1	0.0000750
3101.1	0.0000703
3099.2	0.0000753
3097.3	0.0000693
3095.3	0.0000489
3093.4	0.0000361
3091.5	0.0000360
3089.6	0.0000344
3087.6	0.0000275
3085.7	0.0000205
3083.8	0.0000156
3081.8	0.0000130
3079.9	0.0000086
3078.0	0.0000013
3076.1	-0.0000016
3074.1	-0.0000003
3072.2	-0.0000037
3070.3	-0.0000093
3068.3	-0.0000092
3066.4	-0.0000043
3064.5	0.0000001
3062.6	0.0000014
3060.6	0.0000003
3058.7	-0.0000016
3056.8	-0.0000031
3054.8	-0.0000056
3052.9	-0.0000079
3051.0	-0.0000069
3049.1	-0.0000013
3047.1	0.0000057
3045.2	0.0000047
3043.3	-0.0000045
3041.3	-0.0000112
3039.4	-0.0000115
3037.5	-0.0000064
3035.6	0.0000012
3033.6	0.0000025
3031.7	-0.0000031
3029.8	-0.0000048
3027.8	-0.0000022
3025.9	-0.0000041
3024.0	-0.0000116
3022.1	-0.0000179
3020.1	-0.0000197
3018.2	-0.0000199
3016.3	-0.0000189
3014.3	-0.0000168
3012.4	-0.0000130
3010.5	-0.0000087
3008.6	-0.0000090
3006.6	-0.0000113
3004.7	-0.0000091
3002.8	-0.0000079
3000.8	-0.0000128
2998.9	-0.0000172
2997.0	-0.0000172
2995.1	-0.0000155
2993.1	-0.0000165
2991.2	-0.0000235
2989.3	-0.0000292
2987.3	-0.0000289
2985.4	-0.0000259
2983.5	-0.0000212
2981.6	-0.0000207
2979.6	-0.0000275
2977.7	-0.0000335
2975.8	-0.0000305
2973.8	-0.0000197
2971.9	-0.0000095
2970.0	-0.0000052
2968.1	-0.0000048
2966.1	-0.0000081
2964.2	-0.0000180
2962.3	-0.0000279
2960.3	-0.0000257
2958.4	-0.0000137
2956.5	-0.0000054
2954.6	-0.0000046
2952.6	-0.0000048
2950.7	-0.0000029
2948.8	-0.0000020
2946.8	-0.0000068
2944.9	-0.0000124
2943.0	-0.0000115
2941.1	-0.0000089
2939.1	-0.0000125
2937.2	-0.0000149
2935.3	-0.0000096
2933.3	-0.0000035
2931.4	-0.0000071
2929.5	-0.0000180
2927.6	-0.0000190
2925.6	-0.0000061
2923.7	0.0000032
2921.8	0.0000045
2919.8	0.0000071
2917.9	0.0000096
2916.0	0.0000068
2914.1	0.0000024
2912.1	0.0000022
2910.2	0.0000043
2908.3	0.0000040
2906.3	0.0000035
2904.4	0.0000066
2902.5	0.0000131
2900.6	0.0000213
2898.6	0.0000278
2896.7	0.0000287
2894.8	0.0000305
2892.8	0.0000392
2890.9	0.0000473
2889.0	0.0000529
2887.1	0.0000604
2885.1	0.0000657
2883.2	0.0000630
2881.3	0.0000562
2879.3	0.0000524
2877.4	0.0000532
2875.5	0.0000580
2873.6	0.0000652
2871.6	0.0000740
2869.7	0.0000849
2867.8	0.0000964
2865.8	0.0001061
2863.9	0.0001130
2862.0	0.0001191
2860.1	0.0001262
2858.1	0.0001297
2856.2	0.0001292
2854.3	0.0001318
2852.3	0.0001385
2850.4	0.0001416
2848.5	0.0001363
2846.6	0.0001265
2844.6	0.0001184
2842.7	0.0001130
2840.8	0.0001066
2838.8	0.0000981
2836.9	0.0000869
2835.0	0.0000730
2833.1	0.0000611
2831.1	0.0000523
2829.2	0.0000449
2827.3	0.0000437
2825.3	0.0000495
2823.4	0.0000535
2821.5	0.0000542
2819.6	0.0000579
2817.6	0.0000646
2815.7	0.0000723
2813.8	0.0000822
2811.8	0.0000938
2809.9	0.0001007
2808.0	0.0000993
2806.1	0.0000949
2804.1	0.0000883
2802.2	0.0000765
2800.3	0.0000620
2798.3	0.0000492
2796.4	0.0000393
2794.5	0.0000311
2792.6	0.0000267
2790.6	0.0000267
2788.7	0.0000242
2786.8	0.0000167
2784.8	0.0000117
2782.9	0.0000134
2781.0	0.0000147
2779.1	0.0000108
2777.1	0.0000102
2775.2	0.0000181
2773.3	0.0000251
2771.3	0.0000262
2769.4	0.0000263
2767.5	0.0000272
2765.6	0.0000316
2763.6	0.0000409
2761.7	0.0000488
2759.8	0.0000501
2757.8	0.0000470
2755.9	0.0000418
2754.0	0.0000333
2752.1	0.0000250
2750.1	0.0000198
2748.2	0.0000155
2746.3	0.0000106
2744.3	0.0000045
2742.4	0.0000007
2740.5	0.0000011
2738.6	0.0000028
2736.6	0.0000045
2734.7	0.0000071
2732.8	0.0000084
2730.8	0.0000093
2728.9	0.0000141
2727.0	0.0000170
2725.1	0.0000107
2723.1	0.0000024
2721.2	0.0000037
2719.3	0.0000104
2717.3	0.0000101
2715.4	0.0000049
2713.5	0.0000042
2711.6	0.0000098
2709.6	0.0000134
2707.7	0.0000074
2705.8	-0.0000011
2703.8	-0.0000044
2701.9	-0.0000046
2700.0	-0.0000051
2698.1	-0.0000084
2696.1	-0.0000147
2694.2	-0.0000189
2692.3	-0.0000160
2690.3	-0.0000087
2688.4	-0.0000018
2686.5	0.0000023
2684.6	0.0000012
2682.6	-0.0000044
2680.7	-0.0000067
2678.8	0.0000006
2676.8	0.0000114
2674.9	0.0000173
2673.0	0.0000211
2671.1	0.0000254
2669.1	0.0000240
2667.2	0.0000166
2665.3	0.0000112
2663.3	0.0000117
2661.4	0.0000151
2659.5	0.0000179
2657.6	0.0000165
2655.6	0.0000151
2653.7	0.0000197
2651.8	0.0000247
2649.8	0.0000234
2647.9	0.0000164
2646.0	0.0000052
2644.1	-0.0000033
2642.1	-0.0000056
2640.2	-0.0000064
2638.3	-0.0000060
2636.3	-0.0000028
2634.4	-0.0000010
2632.5	-0.0000018
2630.6	0.0000014
2628.6	0.0000098
2626.7	0.0000127
2624.8	0.0000065
2622.8	0.0000028
2620.9	0.0000039
2619.0	0.0000024
2617.1	-0.0000010
2615.1	-0.0000018
2613.2	-0.0000011
2611.3	-0.0000013
2609.3	-0.0000021
2607.4	-0.0000027
2605.5	-0.0000013
2603.6	0.0000020
2601.6	0.0000027
2599.7	0.0000019
2597.8	0.0000022
2595.8	0.0000017
2593.9	0.0000023
2592.0	0.0000054
2590.1	0.0000109
2588.1	0.0000168
2586.2	0.0000179
2584.3	0.0000129
2582.3	0.0000053
2580.4	0.0000017
2578.5	0.0000040
2576.6	0.0000053
2574.6	0.0000026
2572.7	0.0000012
2570.8	0.0000032
2568.8	0.0000055
2566.9	0.0000077
2565.0	0.0000087
2563.1	0.0000029
2561.1	-0.0000071
2559.2	-0.0000090
2557.3	-0.0000020
2555.3	0.0000035
2553.4	0.0000049
2551.5	0.0000071
2549.6	0.0000111
2547.6	0.0000144
2545.7	0.0000185
2543.8	0.0000230
2541.8	0.0000213
2539.9	0.0000147
2538.0	0.0000119
2536.1	0.0000095
2534.1	0.0000016
2532.2	-0.0000042
2530.3	0.0000009
2528.3	0.0000115
2526.4	0.0000173
2524.5	0.0000175
2522.6	0.0000172
2520.6	0.0000165
2518.7	0.0000117
2516.8	0.0000075
2514.8	0.0000075
2512.9	0.0000052
2511.0	0.0000022
2509.1	0.0000031
2507.1	0.0000032
2505.2	0.0000010
2503.3	-0.0000023
2501.3	-0.0000058
2499.4	-0.0000060
2497.5	-0.0000027
2495.6	-0.0000013
2493.6	-0.0000005
2491.7	0.0000027
2489.8	0.0000065
2487.8	0.0000086
2485.9	0.0000088
2484.0	0.0000106
2482.1	0.0000127
2480.1	0.0000107
2478.2	0.0000087
2476.3	0.0000095
2474.3	0.0000108
2472.4	0.0000087
2470.5	0.0000036
2468.6	0.0000029
2466.6	0.0000042
2464.7	0.0000007
2462.8	-0.0000006
2460.8	0.0000078
2458.9	0.0000175
2457.0	0.0000179
2455.1	0.0000117
2453.1	0.0000057
2451.2	0.0000026
2449.3	0.0000033
2447.3	0.0000066
2445.4	0.0000080
2443.5	0.0000050
2441.6	0.0000029
2439.6	0.0000063
2437.7	0.0000114
2435.8	0.0000149
2433.8	0.0000183
2431.9	0.0000174
2430.0	0.0000109
2428.1	0.0000089
2426.1	0.0000122
2424.2	0.0000110
2422.3	0.0000078
2420.3	0.0000086
2418.4	0.0000090
2416.5	0.0000078
2414.6	0.0000077
2412.6	0.0000072
2410.7	0.0000092
2408.8	0.0000100
2406.8	0.0000052
2404.9	0.0000002
2403.0	-0.0000013
2401.1	-0.0000008
2399.1	0.0000012
2397.2	0.0000030
2395.3	0.0000035
2393.3	0.0000055
2391.4	0.0000088
2389.5	0.0000074
2387.6	0.0000021
2385.6	-0.0000023
2383.7	-0.0000038
2381.8	-0.0000044
2379.8	-0.0000062
2377.9	-0.0000062
2376.0	-0.0000031
2374.1	-0.0000021
2372.1	-0.0000102
2370.2	-0.0000238
2368.3	-0.0000317
2366.3	-0.0000320
2364.4	-0.0000326
2362.5	-0.0000322
2360.6	-0.0000256
2358.6	-0.0000158
2356.7	-0.0000087
2354.8	-0.0000043
2352.8	-0.0000005
2350.9	0.0000011
2349.0	-0.0000019
2347.1	-0.0000053
2345.1	-0.0000019
2343.2	0.0000105
2341.3	0.0000302
2339.3	0.0000539
2337.4	0.0000741
2335.5	0.0000818
2333.6	0.0000727
2331.6	0.0000493
2329.7	0.0000247
2327.8	0.0000110
2325.8	0.0000077
2323.9	0.0000088
2322.0	0.0000081
2320.1	0.0000049
2318.1	0.0000037
2316.2	0.0000039
2314.3	0.0000035
2312.3	0.0000032
2310.4	0.0000040
2308.5	0.0000030
2306.6	0.0000015
2304.6	0.0000037
2302.7	0.0000068
2300.8	0.0000068
2298.8	0.0000051
2296.9	0.0000044
2295.0	0.0000035
2293.1	0.0000020
2291.1	0.0000022
2289.2	0.0000046
2287.3	0.0000080
2285.3	0.0000107
2283.4	0.0000087
2281.5	0.0000036
2279.6	0.0000010
2277.6	0.0000014
2275.7	0.0000063
2273.8	0.0000123
2271.8	0.0000106
2269.9	0.0000063
2268.0	0.0000101
2266.1	0.0000155
2264.1	0.0000107
2262.2	0.0000008
2260.3	-0.0000017
2258.3	0.0000051
2256.4	0.0000138
2254.5	0.0000162
2252.6	0.0000122
2250.6	0.0000099
2248.7	0.0000112
2246.8	0.0000082
2244.8	0.0000011
2242.9	-0.0000029
2241.0	-0.0000032
2239.1	0.0000006
2237.1	0.0000093
2235.2	0.0000137
2233.3	0.0000106
2231.3	0.0000069
2229.4	0.0000030
2227.5	-0.0000019
2225.6	-0.0000032
2223.6	-0.0000015
2221.7	0.0000003
2219.8	0.0000018
2217.8	0.0000037
2215.9	0.0000059
2214.0	0.0000047
2212.1	-0.0000018
2210.1	-0.0000065
2208.2	-0.0000030
2206.3	0.0000044
2204.3	0.0000061
2202.4	0.0000004
2200.5	-0.0000035
2198.6	0.0000003
2196.6	0.0000066
2194.7	0.0000106
2192.8	0.0000127
2190.8	0.0000115
2188.9	0.0000084
2187.0	0.0000082
2185.1	0.0000099
2183.1	0.0000069
2181.2	0.0000020
2179.3	0.0000011
2177.3	0.0000037
2175.4	0.0000081
2173.5	0.0000113
2171.6	0.0000116
2169.6	0.0000101
2167.7	0.0000084
2165.8	0.0000063
2163.8	0.0000053
2161.9	0.0000084
2160.0	0.0000097
2158.1	0.0000027
2156.1	-0.0000041
2154.2	-0.0000011
2152.3	0.0000064
2150.3	0.0000088
2148.4	0.0000074
2146.5	0.0000113
2144.6	0.0000156
2142.6	0.0000107
2140.7	0.0000015
2138.8	-0.0000045
2136.8	-0.0000099
2134.9	-0.0000119
2133.0	-0.0000062
2131.1	0.0000045
2129.1	0.0000140
2127.2	0.0000172
2125.3	0.0000126
2123.3	0.0000065
2121.4	0.0000066
2119.5	0.0000107
2117.6	0.0000138
2115.6	0.0000171
2113.7	0.0000173
2111.8	0.0000123
2109.8	0.0000064
2107.9	0.0000050
2106.0	0.0000048
2104.1	0.0000023
2102.1	0.0000006
2100.2	-0.0000037
2098.3	-0.0000174
2096.3	-0.0000409
2094.4	-0.0000783
2092.5	-0.0001392
2090.6	-0.0002311
2088.6	-0.0003378
2086.7	-0.0004021
2084.8	-0.0003803
2082.8	-0.0002984
2080.9	-0.0002154
2079.0	-0.0001621
2077.1	-0.0001333
2075.1	-0.0001172
2073.2	-0.0001069
2071.3	-0.0000958
2069.3	-0.0000815
2067.4	-0.0000691
2065.5	-0.0000603
2063.6	-0.0000507
2061.6	-0.0000390
2059.7	-0.0000268
2057.8	-0.0000165
2055.8	-0.0000103
2053.9	-0.0000046
2052.0	0.0000031
2050.1	0.0000119
2048.1	0.0000224
2046.2	0.0000322
2044.3	0.0000399
2042.3	0.0000475
2040.4	0.0000540
2038.5	0.0000604
2036.6	0.0000682
2034.6	0.0000734
2032.7	0.0000734
2030.8	0.0000723
2028.8	0.0000752
2026.9	0.0000767
2025.0	0.0000684
2023.1	0.0000579
2021.1	0.0000554
2019.2	0.0000585
2017.3	0.0000599
2015.3	0.0000572
2013.4	0.0000545
2011.5	0.0000553
2009.6	0.0000527
2007.6	0.0000426
2005.7	0.0000328
2003.8	0.0000291
2001.8	0.0000284
1999.9	0.0000281
1998.0	0.0000250
1996.1	0.0000185
1994.1	0.0000160
1992.2	0.0000193
1990.3	0.0000225
1988.3	0.0000217
1986.4	0.0000168
1984.5	0.0000130
1982.6	0.0000138
1980.6	0.0000159
1978.7	0.0000167
1976.8	0.0000165
1974.8	0.0000172
1972.9	0.0000210
1971.0	0.0000242
1969.1	0.0000204
1967.1	0.0000133
1965.2	0.0000095
1963.3	0.0000072
1961.4	0.0000072
1959.4	0.0000115
1957.5	0.0000157
1955.6	0.0000168
1953.6	0.0000164
1951.7	0.0000138
1949.8	0.0000097
1947.9	0.0000053
1945.9	0.0000034
1944.0	0.0000041
1942.1	0.0000016
1940.1	-0.0000027
1938.2	-0.0000009
1936.3	0.0000032
1934.4	0.0000025
1932.4	0.0000026
1930.5	0.0000060
1928.6	0.0000067
1926.6	0.0000057
1924.7	0.0000061
1922.8	0.0000058
1920.9	0.0000042
1918.9	0.0000037
1917.0	0.0000056
1915.1	0.0000072
1913.1	0.0000079
1911.2	0.0000095
1909.3	0.0000097
1907.4	0.0000058
1905.4	0.0000018
1903.5	0.0000001
1901.6	0.0000013
1899.6	0.0000067
1897.7	0.0000115
1895.8	0.0000089
1893.9	0.0000048
1891.9	0.0000038
1890.0	0.0000010
1888.1	-0.0000021
1886.1	0.0000003
1884.2	0.0000060
1882.3	0.0000094
1880.4	0.0000093
1878.4	0.0000060
1876.5	0.0000005
1874.6	-0.0000049
1872.6	-0.0000063
1870.7	-0.0000067
1868.8	-0.0000104
1866.9	-0.0000134
1864.9	-0.0000091
1863.0	-0.0000009
1861.1	0.0000054
1859.1	0.0000087
1857.2	0.0000087
1855.3	0.0000061
1853.4	0.0000044
1851.4	-0.0000005
1849.5	-0.0000114
1847.6	-0.0000185
1845.6	-0.0000185
1843.7	-0.0000176
1841.8	-0.0000148
1839.9	-0.0000078
1837.9	-0.0000003
1836.0	0.0000057
1834.1	0.0000079
1832.1	0.0000053
1830.2	0.0000044
1828.3	0.0000076
1826.4	0.0000102
1824.4	0.0000127
1822.5	0.0000153
1820.6	0.0000156
1818.6	0.0000156
1816.7	0.0000189
1814.8	0.0000267
1812.9	0.0000332
1810.9	0.0000328
1809.0	0.0000301
1807.1	0.0000324
1805.1	0.0000343
1803.2	0.0000283
1801.3	0.0000193
1799.4	0.0000163
1797.4	0.0000203
1795.5	0.0000229
1793.6	0.0000195
1791.6	0.0000167
1789.7	0.0000206
1787.8	0.0000288
1785.9	0.0000352
1783.9	0.0000345
1782.0	0.0000267
1780.1	0.0000177
1778.1	0.0000114
1776.2	0.0000066
1774.3	0.0000032
1772.4	0.0000036
1770.4	0.0000027
1768.5	-0.0000023
1766.6	-0.0000025
1764.6	0.0000038
1762.7	0.0000079
1760.8	0.0000091
1758.9	0.0000107
1756.9	0.0000149
1755.0	0.0000183
1753.1	0.0000141
1751.1	0.0000085
1749.2	0.0000105
1747.3	0.0000197
1745.4	0.0000280
1743.4	0.0000283
1741.5	0.0000241
1739.6	0.0000224
1737.6	0.0000183
1735.7	0.0000068
1733.8	0.0000024
1731.9	0.0000149
1729.9	0.0000305
1728.0	0.0000399
1726.1	0.0000464
1724.1	0.0000519
1722.2	0.0000498
1720.3	0.0000401
1718.4	0.0000424
1716.4	0.0000639
1714.5	0.0000910
1712.6	0.0001238
1710.6	0.0001843
1708.7	0.0002961
1706.8	0.0004683
1704.9	0.0006748
1702.9	0.0008562
1701.0	0.0009730
1699.1	0.0010277
1697.1	0.0010393
1695.2	0.0010372
1693.3	0.0010420
1691.4	0.0010590
1689.4	0.0011236
1687.5	0.0012837
1685.6	0.0015581
1683.6	0.0019244
1681.7	0.0023055
1679.8	0.0026039
1677.9	0.0027567
1675.9	0.0027567
1674.0	0.0026319
1672.1	0.0024161
1670.1	0.0021484
1668.2	0.0018721
1666.3	0.0016102
1664.4	0.0013628
1662.4	0.0011385
1660.5	0.0009503
1658.6	0.0007943
1656.6	0.0006576
1654.7	0.0005446
1652.8	0.0004764
1650.9	0.0004473
1648.9	0.0004258
1647.0	0.0004058
1645.1	0.0003974
1643.1	0.0003982
1641.2	0.0003996
1639.3	0.0003940
1637.4	0.0003861
1635.4	0.0003912
1633.5	0.0004074
1631.6	0.0004186
1629.6	0.0004232
1627.7	0.0004310
1625.8	0.0004442
1623.9	0.0004585
1621.9	0.0004674
1620.0	0.0004610
1618.1	0.0004386
1616.1	0.0004118
1614.2	0.0003865
1612.3	0.0003621
1610.4	0.0003353
1608.4	0.0003025
1606.5	0.0002751
1604.6	0.0002649
1602.6	0.0002646
1600.7	0.0002616
1598.8	0.0002564
1596.9	0.0002518
1594.9	0.0002425
1593.0	0.0002254
1591.1	0.0002044
1589.1	0.0001866
1587.2	0.0001773
1585.3	0.0001754
1583.4	0.0001774
1581.4	0.0001868
1579.5	0.0002246
1577.6	0.0003634
1575.6	0.0006845
1573.7	0.0011002
1571.8	0.0013570
1569.9	0.0013013
1567.9	0.0010138
1566.0	0.0006750
1564.1	0.0003916
1562.1	0.0001874
1560.2	0.0000689
1558.3	0.0000316
1556.4	0.0000349
1554.4	0.0000400
1552.5	0.0000419
1550.6	0.0000421
1548.6	0.0000413
1546.7	0.0000417
1544.8	0.0000386
1542.9	0.0000294
1540.9	0.0000184
1539.0	0.0000161
1537.1	0.0000269
1535.1	0.0000351
1533.2	0.0000334
1531.3	0.0000338
1529.4	0.0000344
1527.4	0.0000262
1525.5	0.0000135
1523.6	0.0000006
1521.6	-0.0000082
1519.7	-0.0000086
1517.8	-0.0000024
1515.9	0.0000040
1513.9	0.0000048
1512.0	0.0000019
1510.1	0.0000023
1508.1	0.0000069
1506.2	0.0000158
1504.3	0.0000267
1502.4	0.0000331
1500.4	0.0000322
1498.5	0.0000273
1496.6	0.0000307
1494.6	0.0000428
1492.7	0.0000443
1490.8	0.0000383
1488.9	0.0000484
1486.9	0.0000752
1485.0	0.0001081
1483.1	0.0001566
1481.1	0.0002446
1479.2	0.0003799
1477.3	0.0005308
1475.4	0.0006636
1473.4	0.0008179
1471.5	0.0010667
1469.6	0.0013799
1467.6	0.0016292
1465.7	0.0017215
1463.8	0.0016365
1461.9	0.0014031
1459.9	0.0011026
1458.0	0.0008288
1456.1	0.0006309
1454.1	0.0004987
1452.2	0.0003982
1450.3	0.0003152
1448.4	0.0002535
1446.4	0.0002121
1444.5	0.0001842
1442.6	0.0001620
1440.6	0.0001275
1438.7	0.0000922
1436.8	0.0000409
1434.9	-0.0001270
1432.9	-0.0003122
1431.0	-0.0002689
1429.1	-0.0000742
1427.1	0.0000454
1425.2	0.0000842
1423.3	0.0001044
1421.4	0.0001103
1419.4	0.0001103
1417.5	0.0001183
1415.6	0.0001359
1413.6	0.0001530
1411.7	0.0001567
1409.8	0.0001471
1407.9	0.0001350
1405.9	0.0001283
1404.0	0.0001375
1402.1	0.0001745
1400.1	0.0002393
1398.2	0.0003176
1396.3	0.0003753
1394.4	0.0003786
1392.4	0.0003248
1390.5	0.0002398
1388.6	0.0001567
1386.6	0.0000987
1384.7	0.0000698
1382.8	0.0000599
1380.9	0.0000680
1378.9	0.0000993
1377.0	0.0001580
1375.1	0.0002575
1373.1	0.0004113
1371.2	0.0005976
1369.3	0.0007479
1367.4	0.0007860
1365.4	0.0006928
1363.5	0.0005266
1361.6	0.0003689
1359.6	0.0002596
1357.7	0.0001966
1355.8	0.0001641
1353.9	0.0001437
1351.9	0.0001233
1350.0	0.0001015
1348.1	0.0000801
1346.1	0.0000606
1344.2	0.0000448
1342.3	0.0000350
1340.4	0.0000290
1338.4	0.0000203
1336.5	0.0000110
1334.6	0.0000063
1332.6	0.0000076
1330.7	0.0000144
1328.8	0.0000190
1326.9	0.0000147
1324.9	0.0000069
1323.0	0.0000011
1321.1	-0.0000031
1319.1	-0.0000058
1317.2	-0.0000044
1315.3	-0.0000007
1313.4	0.0000040
1311.4	0.0000095
1309.5	0.0000109
1307.6	0.0000102
1305.6	0.0000135
1303.7	0.0000172
1301.8	0.0000199
1299.9	0.0000213
1297.9	0.0000226
1296.0	0.0000311
1294.1	0.0000460
1292.1	0.0000650
1290.2	0.0000912
1288.3	0.0001210
1286.4	0.0001494
1284.4	0.0001738
1282.5	0.0001862
1280.6	0.0001815
1278.6	0.0001588
1276.7	0.0001202
1274.8	0.0000813
1272.9	0.0000585
1270.9	0.0000505
1269.0	0.0000500
1267.1	0.0000537
1265.1	0.0000625
1263.2	0.0000821
1261.3	0.0001148
1259.4	0.0001598
1257.4	0.0002177
1255.5	0.0002782
1253.6	0.0003229
1251.6	0.0003457
1249.7	0.0003483
1247.8	0.0003330
1245.9	0.0003026
1243.9	0.0002607
1242.0	0.0002147
1240.1	0.0001700
1238.1	0.0001252
1236.2	0.0000831
1234.3	0.0000491
1232.4	0.0000247
1230.4	0.0000135
1228.5	0.0000147
1226.6	0.0000176
1224.6	0.0000196
1222.7	0.0000245
1220.8	0.0000248
1218.9	0.0000148
1216.9	0.0000103
1215.0	0.0000249
1213.1	0.0000544
1211.1	0.0000902
1209.2	0.0001135
1207.3	0.0001068
1205.4	0.0000803
1203.4	0.0000511
1201.5	0.0000256
1199.6	0.0000084
1197.6	-0.0000003
1195.7	-0.0000073
1193.8	-0.0000125
1191.9	-0.0000092
1189.9	0.0000004
1188.0	0.0000091
1186.1	0.0000120
1184.1	0.0000081
1182.2	0.0000014
1180.3	0.0000004
1178.4	0.0000074
1176.4	0.0000148
1174.5	0.0000158
1172.6	0.0000111
1170.6	0.0000066
1168.7	0.0000151
1166.8	0.0000433
1164.9	0.0000836
1162.9	0.0001362
1161.0	0.0001981
1159.1	0.0002526
1157.1	0.0002987
1155.2	0.0003386
1153.3	0.0003541
1151.4	0.0003427
1149.4	0.0003160
1147.5	0.0002732
1145.6	0.0002161
1143.6	0.0001532
1141.7	0.0000943
1139.8	0.0000535
1137.9	0.0000284
1135.9	0.0000060
1134.0	-0.0000091
1132.1	-0.0000086
1130.1	0.0000019
1128.2	0.0000054
1126.3	-0.0000050
1124.4	-0.0000103
1122.4	-0.0000012
1120.5	0.0000060
1118.6	0.0000050
1116.6	0.0000049
1114.7	0.0000057
1112.8	0.0000005
1110.9	-0.0000029
1108.9	0.0000041
1107.0	0.0000126
1105.1	0.0000131
1103.1	0.0000120
1101.2	0.0000156
1099.3	0.0000223
1097.4	0.0000319
1095.4	0.0000462
1093.5	0.0000777
1091.6	0.0001342
1089.6	0.0002064
1087.7	0.0002921
1085.8	0.0003782
1083.9	0.0004253
1081.9	0.0003994
1080.0	0.0003112
1078.1	0.0002085
1076.1	0.0001270
1074.2	0.0000789
1072.3	0.0000628
1070.4	0.0000609
1068.4	0.0000506
1066.5	0.0000271
1064.6	0.0000057
1062.6	-0.0000010
1060.7	0.0000095
1058.8	0.0000272
1056.9	0.0000405
1054.9	0.0000450
1053.0	0.0000398
1051.1	0.0000355
1049.1	0.0000408
1047.2	0.0000511
1045.3	0.0000609
1043.4	0.0000662
1041.4	0.0000756
1039.5	0.0001021
1037.6	0.0001428
1035.6	0.0002006
1033.7	0.0002861
1031.8	0.0003900
1029.9	0.0004970
1027.9	0.0006038
1026.0	0.0007067
1024.1	0.0007901
1022.1	0.0008344
1020.2	0.0008359
1018.3	0.0008021
1016.4	0.0007385
1014.4	0.0006571
1012.5	0.0005611
1010.6	0.0004354
1008.6	0.0002944
1006.7	0.0001836
1004.8	0.0001261
1002.9	0.0001072
1000.9	0.0000961
999.0	0.0000757
997.1	0.0000570
995.1	0.0000488
993.2	0.0000448
991.3	0.0000434
989.4	0.0000471
987.4	0.0000543
985.5	0.0000604
983.6	0.0000671
981.6	0.0000802
979.7	0.0000863
977.8	0.0000745
975.9	0.0000659
973.9	0.0000698
972.0	0.0000651
970.1	0.0000506
968.1	0.0000470
966.2	0.0000525
964.3	0.0000500
962.4	0.0000465
960.4	0.0000571
958.5	0.0000744
956.6	0.0000887
954.6	0.0001105
952.7	0.0001551
950.8	0.0002125
948.9	0.0002432
946.9	0.0002187
945.0	0.0001580
943.1	0.0001017
941.1	0.0000669
939.2	0.0000542
937.3	0.0000658
935.4	0.0000991
933.4	0.0001474
931.5	0.0001840
929.6	0.0001699
927.6	0.0001110
925.7	0.0000536
923.8	0.0000190
921.9	0.0000005
919.9	-0.0000034
918.0	-0.0000018
916.1	-0.0000025
914.1	0.0000077
912.2	0.0000324
910.3	0.0000525
908.4	0.0000632
906.4	0.0000784
904.5	0.0000927
902.6	0.0000892
900.6	0.0000721
898.7	0.0000601
896.8	0.0000582
894.9	0.0000553
892.9	0.0000518
891.0	0.0000706
889.1	0.0001528
887.1	0.0003228
885.2	0.0005006
883.3	0.0005264
881.4	0.0003749
879.4	0.0002032
877.5	0.0001236
875.6	0.0001015
873.6	0.0000865
871.7	0.0000785
869.8	0.0000725
867.9	0.0000559
865.9	0.0000440
864.0	0.0000649
862.1	0.0001161
860.1	0.0001550
858.2	0.0001692
856.3	0.0001809
854.4	0.0001976
852.4	0.0002176
850.5	0.0002338
848.6	0.0002461
846.6	0.0002448
844.7	0.0002231
842.8	0.0002102
840.9	0.0002101
838.9	0.0001925
837.0	0.0001500
835.1	0.0001031
833.1	0.0000643
831.2	0.0000257
829.3	-0.0000035
827.4	0.0000083
825.4	0.0000618
823.5	0.0001129
821.6	0.0001252
819.6	0.0001282
817.7	0.0001797
815.8	0.0002410
813.9	0.0002403
811.9	0.0002290
810.0	0.0003021
808.1	0.0004855
806.1	0.0007383
804.2	0.0009985
802.3	0.0012400
800.4	0.0014893
798.4	0.0017506
796.5	0.0019766
794.6	0.0021630
792.6	0.0023269
790.7	0.0024417
788.8	0.0025067
786.9	0.0025502
784.9	0.0025442
783.0	0.0024722
781.1	0.0023666
779.1	0.0022037
777.2	0.0019745
775.3	0.0017304
773.4	0.0014953
771.4	0.0012643
769.5	0.0010460
767.6	0.0008673
765.6	0.0007577
763.7	0.0007264
761.8	0.0007194
759.9	0.0006901
757.9	0.0006865
756.0	0.0007615
754.1	0.0008874
752.1	0.0009733
750.2	0.0009481
748.3	0.0008094
746.4	0.0006339
744.4	0.0005228
742.5	0.0004904
740.6	0.0004983
738.6	0.0005090
736.7	0.0004917
734.8	0.0004465
732.9	0.0003675
730.9	0.0002554
729.0	0.0001707
727.1	0.0001526
725.1	0.0001726
723.2	0.0002186
721.3	0.0003040
719.4	0.0002921
717.4	0.0000737
715.5	-0.0000816
713.6	-0.0000310
711.6	0.0000198
709.7	0.0000355
707.8	0.0001016
705.9	0.0000580
703.9	-0.0000567
702.0	-0.0000975
700.1	-0.0000418
698.1	0.0000240
696.2	0.0000270
694.3	-0.0000096
692.4	-0.0000547
690.4	-0.0000390
688.5	0.0000529
686.6	0.0000762
684.6	0.0000167
682.7	0.0000134
680.8	0.0000654
678.9	0.0000717
676.9	0.0000118
675.0	-0.0000859
673.1	-0.0001176
671.1	-0.0000330
669.2	0.0000266
667.3	0.0000165
665.4	0.0000166
663.4	0.0000262
661.5	-0.0000079
659.6	-0.0000593
657.6	-0.0000879
655.7	-0.0000807
653.8	-0.0000255
651.9	-0.0000197
649.9	-0.0000649
648.0	-0.0000431
646.1	-0.0000097
644.1	-0.0000329
642.2	-0.0000874
640.3	-0.0002311
638.4	-0.0004099
636.4	-0.0003692
634.5	-0.0001586
632.6	-0.0000038
630.6	0.0001631
628.7	0.0003649
626.8	0.0003831
624.9	0.0001869
622.9	-0.0000388
621.0	-0.0001981
619.1	-0.0001381
617.1	0.0001456
615.2	0.0002892
613.3	0.0000774
611.4	-0.0003076
609.4	-0.0005151
607.5	-0.0004197
605.6	-0.0002203
603.6	-0.0001375
601.7	-0.0001323
599.8	-0.0000609
597.9	0.0000321
595.9	0.0001022
594.0	0.0001586
592.1	0.0001634
590.1	0.0000838
588.2	-0.0000370
586.3	-0.0001326
584.4	-0.0002180
582.4	-0.0003103
580.5	-0.0004400
578.6	-0.0006237
576.6	-0.0008500
574.7	-0.0008818
572.8	-0.0005216
570.9	-0.0001903
568.9	-0.0001377
567.0	-0.0000829
565.1	0.0000481
563.1	0.0000928
561.2	0.0000797
559.3	0.0000594
557.4	-0.0000218
555.4	0.0000138
553.5	0.0001550
551.6	0.0001737
549.6	0.0001094
547.7	0.0001476
545.8	0.0003054
543.9	0.0003682
541.9	0.0003022
540.0	0.0002845
538.1	0.0007079
536.1	0.0015765
534.2	0.0020328
532.3	0.0017146
530.4	0.0009434
528.4	-0.0003860
526.5	-0.0022532
524.6	-0.0032617
522.6	-0.0021030
520.7	-0.0002236
518.8	0.0005429
516.9	0.0013372
514.9	0.0002893
513.0	-0.0043404
511.1	-0.0039812
509.1	0.0005197
507.2	-0.0023390
505.3	-0.0062919
503.4	-0.0032313
501.4	-0.0005897
499.5	-0.0009215
497.6	-0.0009849
495.6	-0.0004315
493.7	0.0002260
491.8	0.0003988
489.9	0.0000338
487.9	-0.0005270
486.0	-0.0004884
484.1	0.0003082
482.1	0.0010680
480.2	0.0012022
478.3	0.0008271
476.4	0.0005206
474.4	0.0002217
472.5	-0.0003055
470.6	-0.0007901
468.6	-0.0007473
466.7	-0.0002691
464.8	0.0002249
462.9	0.0005190
460.9	0.0003816
459.0	0.0000386
457.1	-0.0001332
455.1	0.0000163
453.2	-0.0000513
451.3	-0.0006123
449.4	-0.0007988
447.4	-0.0006275
445.5	-0.0007922
443.6	-0.0010300
441.6	-0.0006234
439.7	0.0001063
437.8	0.0002934
435.9	0.0001377
433.9	0.0002152
432.0	0.0004329
430.1	0.0002712
428.1	-0.0001923
426.2	-0.0005075
424.3	-0.0004602
422.4	-0.0001820
420.4	-0.0000463
418.5	-0.0001713
416.6	-0.0007403
414.6	-0.0011495
412.7	-0.0007011
410.8	-0.0000701
408.9	0.0002387
406.9	0.0004704
405.0	0.0006183
403.1	0.0003886
401.1	0.0000059
399.2	-0.0002328
397.3	-0.0000908
395.4	0.0002476
393.4	0.0001206
391.5	-0.0002600
389.6	-0.0005827
387.6	-0.0006388
385.7	-0.0005756
383.8	-0.0006308
381.9	-0.0005433
379.9	-0.0004545
378.0	-0.0005046
376.1	-0.0007756
374.1	-0.0008477
372.2	-0.0003526
370.3	0.0003998
368.4	0.0007972
