3997.91406	-0.00065
3995.98550	-0.00068
3994.05693	-0.00068
3992.12837	-0.00064
3990.19980	-0.00063
3988.27124	-0.00066
3986.34268	-0.00069
3984.41411	-0.00068
3982.48555	-0.00068
3980.55698	-0.00068
3978.62842	-0.00067
3976.69985	-0.00066
3974.77129	-0.00065
3972.84272	-0.00065
3970.91416	-0.00064
3968.98560	-0.00063
3967.05703	-0.00061
3965.12847	-0.00062
3963.19990	-0.00064
3961.27134	-0.00065
3959.34277	-0.00068
3957.41421	-0.00071
3955.48564	-0.00072
3953.55708	-0.00070
3951.62852	-0.00069
3949.69995	-0.00068
3947.77139	-0.00069
3945.84282	-0.00071
3943.91426	-0.00072
3941.98569	-0.00072
3940.05713	-0.00071
3938.12856	-0.00070
3936.20000	-0.00068
3934.27144	-0.00066
3932.34287	-0.00065
3930.41431	-0.00068
3928.48574	-0.00071
3926.55718	-0.00072
3924.62861	-0.00070
3922.70005	-0.00070
3920.77148	-0.00070
3918.84292	-0.00070
3916.91436	-0.00069
3914.98579	-0.00068
3913.05723	-0.00068
3911.12866	-0.00067
3909.20010	-0.00067
3907.27153	-0.00065
3905.34297	-0.00062
3903.41440	-0.00061
3901.48584	-0.00062
3899.55728	-0.00064
3897.62871	-0.00068
3895.70015	-0.00071
3893.77158	-0.00068
3891.84302	-0.00064
3889.91445	-0.00064
3887.98589	-0.00065
3886.05733	-0.00066
3884.12876	-0.00069
3882.20020	-0.00069
3880.27163	-0.00070
3878.34307	-0.00072
3876.41450	-0.00073
3874.48594	-0.00070
3872.55737	-0.00066
3870.62881	-0.00063
3868.70025	-0.00063
3866.77168	-0.00065
3864.84312	-0.00066
3862.91455	-0.00068
3860.98599	-0.00071
3859.05742	-0.00071
3857.12886	-0.00062
3855.20029	-0.00046
3853.27173	-0.00042
3851.34317	-0.00058
3849.41460	-0.00074
3847.48604	-0.00077
3845.55747	-0.00076
3843.62891	-0.00073
3841.70034	-0.00069
3839.77178	-0.00062
3837.84321	-0.00061
3835.91465	-0.00067
3833.98609	-0.00073
3832.05752	-0.00076
3830.12896	-0.00077
3828.20039	-0.00079
3826.27183	-0.00079
3824.34326	-0.00077
3822.41470	-0.00075
3820.48613	-0.00075
3818.55757	-0.00073
3816.62901	-0.00070
3814.70044	-0.00075
3812.77188	-0.00082
3810.84331	-0.00084
3808.91475	-0.00078
3806.98618	-0.00075
3805.05762	-0.00076
3803.12905	-0.00072
3801.20049	-0.00070
3799.27193	-0.00076
3797.34336	-0.00081
3795.41480	-0.00082
3793.48623	-0.00083
3791.55767	-0.00086
3789.62910	-0.00088
3787.70054	-0.00088
3785.77197	-0.00088
3783.84341	-0.00088
3781.91485	-0.00088
3779.98628	-0.00089
3778.05772	-0.00091
3776.12915	-0.00091
3774.20059	-0.00090
3772.27202	-0.00087
3770.34346	-0.00085
3768.41489	-0.00086
3766.48633	-0.00087
3764.55777	-0.00088
3762.62920	-0.00089
3760.70064	-0.00087
3758.77207	-0.00087
3756.84351	-0.00087
3754.91494	-0.00082
3752.98638	-0.00072
3751.05781	-0.00066
3749.12925	-0.00069
3747.20069	-0.00070
3745.27212	-0.00067
3743.34356	-0.00072
3741.41499	-0.00085
3739.48643	-0.00089
3737.55786	-0.00083
3735.62930	-0.00077
3733.70074	-0.00077
3731.77217	-0.00083
3729.84361	-0.00089
3727.91504	-0.00091
3725.98648	-0.00091
3724.05791	-0.00092
3722.12935	-0.00094
3720.20078	-0.00095
3718.27222	-0.00096
3716.34366	-0.00096
3714.41509	-0.00092
3712.48653	-0.00087
3710.55796	-0.00088
3708.62940	-0.00093
3706.70083	-0.00097
3704.77227	-0.00099
3702.84370	-0.00098
3700.91514	-0.00098
3698.98658	-0.00100
3697.05801	-0.00103
3695.12945	-0.00102
3693.20088	-0.00097
3691.27232	-0.00087
3689.34375	-0.00081
3687.41519	-0.00087
3685.48662	-0.00096
3683.55806	-0.00101
3681.62950	-0.00101
3679.70093	-0.00097
3677.77237	-0.00088
3675.84380	-0.00084
3673.91524	-0.00087
3671.98667	-0.00087
3670.05811	-0.00088
3668.12954	-0.00097
3666.20098	-0.00105
3664.27242	-0.00108
3662.34385	-0.00107
3660.41529	-0.00104
3658.48672	-0.00100
3656.55816	-0.00099
3654.62959	-0.00101
3652.70103	-0.00099
3650.77246	-0.00092
3648.84390	-0.00091
3646.91534	-0.00098
3644.98677	-0.00104
3643.05821	-0.00107
3641.12964	-0.00109
3639.20108	-0.00112
3637.27251	-0.00115
3635.34395	-0.00116
3633.41538	-0.00113
3631.48682	-0.00105
3629.55826	-0.00095
3627.62969	-0.00096
3625.70113	-0.00105
3623.77256	-0.00111
3621.84400	-0.00108
3619.91543	-0.00103
3617.98687	-0.00105
3616.05830	-0.00111
3614.12974	-0.00114
3612.20118	-0.00113
3610.27261	-0.00112
3608.34405	-0.00113
3606.41548	-0.00116
3604.48692	-0.00118
3602.55835	-0.00117
3600.62979	-0.00114
3598.70123	-0.00113
3596.77266	-0.00115
3594.84410	-0.00117
3592.91553	-0.00117
3590.98697	-0.00115
3589.05840	-0.00112
3587.12984	-0.00113
3585.20127	-0.00116
3583.27271	-0.00118
3581.34415	-0.00119
3579.41558	-0.00122
3577.48702	-0.00124
3575.55845	-0.00121
3573.62989	-0.00118
3571.70132	-0.00118
3569.77276	-0.00118
3567.84419	-0.00118
3565.91563	-0.00122
3563.98707	-0.00125
3562.05850	-0.00125
3560.12994	-0.00124
3558.20137	-0.00124
3556.27281	-0.00126
3554.34424	-0.00126
3552.41568	-0.00126
3550.48711	-0.00126
3548.55855	-0.00127
3546.62999	-0.00126
3544.70142	-0.00126
3542.77286	-0.00128
3540.84429	-0.00129
3538.91573	-0.00130
3536.98716	-0.00130
3535.05860	-0.00131
3533.13003	-0.00132
3531.20147	-0.00133
3529.27291	-0.00133
3527.34434	-0.00130
3525.41578	-0.00127
3523.48721	-0.00129
3521.55865	-0.00131
3519.63008	-0.00134
3517.70152	-0.00134
3515.77295	-0.00135
3513.84439	-0.00137
3511.91583	-0.00139
3509.98726	-0.00140
3508.05870	-0.00141
3506.13013	-0.00139
3504.20157	-0.00138
3502.27300	-0.00139
3500.34444	-0.00139
3498.41587	-0.00137
3496.48731	-0.00135
3494.55875	-0.00136
3492.63018	-0.00140
3490.70162	-0.00143
3488.77305	-0.00144
3486.84449	-0.00143
3484.91592	-0.00144
3482.98736	-0.00144
3481.05879	-0.00144
3479.13023	-0.00145
3477.20167	-0.00148
3475.27310	-0.00150
3473.34454	-0.00149
3471.41597	-0.00147
3469.48741	-0.00146
3467.55884	-0.00147
3465.63028	-0.00151
3463.70171	-0.00154
3461.77315	-0.00153
3459.84459	-0.00152
3457.91602	-0.00151
3455.98746	-0.00150
3454.05889	-0.00149
3452.13033	-0.00150
3450.20176	-0.00150
3448.27320	-0.00150
3446.34464	-0.00151
3444.41607	-0.00153
3442.48751	-0.00154
3440.55894	-0.00156
3438.63038	-0.00158
3436.70181	-0.00159
3434.77325	-0.00160
3432.84468	-0.00164
3430.91612	-0.00167
3428.98756	-0.00169
3427.05899	-0.00170
3425.13043	-0.00169
3423.20186	-0.00168
3421.27330	-0.00165
3419.34473	-0.00163
3417.41617	-0.00161
3415.48760	-0.00160
3413.55904	-0.00160
3411.63048	-0.00159
3409.70191	-0.00160
3407.77335	-0.00162
3405.84478	-0.00165
3403.91622	-0.00167
3401.98765	-0.00168
3400.05909	-0.00167
3398.13052	-0.00167
3396.20196	-0.00165
3394.27340	-0.00163
3392.34483	-0.00160
3390.41627	-0.00158
3388.48770	-0.00159
3386.55914	-0.00161
3384.63057	-0.00165
3382.70201	-0.00168
3380.77344	-0.00169
3378.84488	-0.00167
3376.91632	-0.00164
3374.98775	-0.00164
3373.05919	-0.00165
3371.13062	-0.00167
3369.20206	-0.00166
3367.27349	-0.00166
3365.34493	-0.00167
3363.41636	-0.00166
3361.48780	-0.00165
3359.55924	-0.00165
3357.63067	-0.00164
3355.70211	-0.00165
3353.77354	-0.00166
3351.84498	-0.00169
3349.91641	-0.00171
3347.98785	-0.00171
3346.05928	-0.00169
3344.13072	-0.00168
3342.20216	-0.00167
3340.27359	-0.00167
3338.34503	-0.00168
3336.41646	-0.00168
3334.48790	-0.00169
3332.55933	-0.00170
3330.63077	-0.00171
3328.70220	-0.00172
3326.77364	-0.00172
3324.84508	-0.00172
3322.91651	-0.00174
3320.98795	-0.00176
3319.05938	-0.00176
3317.13082	-0.00175
3315.20225	-0.00175
3313.27369	-0.00176
3311.34513	-0.00174
3309.41656	-0.00173
3307.48800	-0.00174
3305.55943	-0.00178
3303.63087	-0.00180
3301.70230	-0.00181
3299.77374	-0.00179
3297.84517	-0.00176
3295.91661	-0.00174
3293.98805	-0.00174
3292.05948	-0.00177
3290.13092	-0.00180
3288.20235	-0.00182
3286.27379	-0.00182
3284.34522	-0.00182
3282.41666	-0.00182
3280.48809	-0.00183
3278.55953	-0.00183
3276.63097	-0.00184
3274.70240	-0.00184
3272.77384	-0.00185
3270.84527	-0.00186
3268.91671	-0.00185
3266.98814	-0.00184
3265.05958	-0.00185
3263.13101	-0.00186
3261.20245	-0.00188
3259.27389	-0.00190
3257.34532	-0.00190
3255.41676	-0.00189
3253.48819	-0.00188
3251.55963	-0.00187
3249.63106	-0.00188
3247.70250	-0.00190
3245.77393	-0.00191
3243.84537	-0.00193
3241.91681	-0.00192
3239.98824	-0.00191
3238.05968	-0.00192
3236.13111	-0.00194
3234.20255	-0.00196
3232.27398	-0.00196
3230.34542	-0.00195
3228.41685	-0.00195
3226.48829	-0.00197
3224.55973	-0.00199
3222.63116	-0.00200
3220.70260	-0.00200
3218.77403	-0.00200
3216.84547	-0.00199
3214.91690	-0.00200
3212.98834	-0.00203
3211.05977	-0.00204
3209.13121	-0.00205
3207.20265	-0.00206
3205.27408	-0.00207
3203.34552	-0.00206
3201.41695	-0.00206
3199.48839	-0.00208
3197.55982	-0.00210
3195.63126	-0.00213
3193.70269	-0.00215
3191.77413	-0.00214
3189.84557	-0.00213
3187.91700	-0.00213
3185.98844	-0.00215
3184.05987	-0.00218
3182.13131	-0.00220
3180.20274	-0.00220
3178.27418	-0.00220
3176.34562	-0.00221
3174.41705	-0.00222
3172.48849	-0.00222
3170.55992	-0.00222
3168.63136	-0.00222
3166.70279	-0.00223
3164.77423	-0.00226
3162.84566	-0.00229
3160.91710	-0.00230
3158.98854	-0.00231
3157.05997	-0.00230
3155.13141	-0.00230
3153.20284	-0.00231
3151.27428	-0.00233
3149.34571	-0.00235
3147.41715	-0.00235
3145.48858	-0.00237
3143.56002	-0.00239
3141.63146	-0.00242
3139.70289	-0.00242
3137.77433	-0.00242
3135.84576	-0.00243
3133.91720	-0.00245
3131.98863	-0.00246
3130.06007	-0.00247
3128.13150	-0.00250
3126.20294	-0.00251
3124.27438	-0.00252
3122.34581	-0.00252
3120.41725	-0.00253
3118.48868	-0.00253
3116.56012	-0.00253
3114.63155	-0.00255
3112.70299	-0.00259
3110.77442	-0.00261
3108.84586	-0.00260
3106.91730	-0.00259
3104.98873	-0.00261
3103.06017	-0.00263
3101.13160	-0.00266
3099.20304	-0.00267
3097.27447	-0.00268
3095.34591	-0.00269
3093.41734	-0.00270
3091.48878	-0.00272
3089.56022	-0.00273
3087.63165	-0.00274
3085.70309	-0.00275
3083.77452	-0.00276
3081.84596	-0.00276
3079.91739	-0.00275
3077.98883	-0.00275
3076.06026	-0.00276
3074.13170	-0.00277
3072.20314	-0.00276
3070.27457	-0.00276
3068.34601	-0.00275
3066.41744	-0.00273
3064.48888	-0.00273
3062.56031	-0.00273
3060.63175	-0.00274
3058.70318	-0.00275
3056.77462	-0.00278
3054.84606	-0.00280
3052.91749	-0.00282
3050.98893	-0.00284
3049.06036	-0.00288
3047.13180	-0.00294
3045.20323	-0.00300
3043.27467	-0.00303
3041.34610	-0.00306
3039.41754	-0.00311
3037.48898	-0.00317
3035.56041	-0.00321
3033.63185	-0.00324
3031.70328	-0.00326
3029.77472	-0.00329
3027.84615	-0.00329
3025.91759	-0.00328
3023.98903	-0.00326
3022.06046	-0.00323
3020.13190	-0.00321
3018.20333	-0.00320
3016.27477	-0.00320
3014.34620	-0.00320
3012.41764	-0.00321
3010.48907	-0.00321
3008.56051	-0.00321
3006.63195	-0.00325
3004.70338	-0.00329
3002.77482	-0.00333
3000.84625	-0.00338
2998.91769	-0.00342
2996.98912	-0.00343
2995.06056	-0.00343
2993.13199	-0.00341
2991.20343	-0.00340
2989.27487	-0.00342
2987.34630	-0.00344
2985.41774	-0.00345
2983.48917	-0.00346
2981.56061	-0.00349
2979.63204	-0.00353
2977.70348	-0.00356
2975.77491	-0.00358
2973.84635	-0.00359
2971.91779	-0.00360
2969.98922	-0.00362
2968.06066	-0.00361
2966.13209	-0.00358
2964.20353	-0.00355
2962.27496	-0.00354
2960.34640	-0.00354
2958.41783	-0.00355
2956.48927	-0.00356
2954.56071	-0.00358
2952.63214	-0.00359
2950.70358	-0.00361
2948.77501	-0.00364
2946.84645	-0.00371
2944.91788	-0.00379
2942.98932	-0.00385
2941.06075	-0.00388
2939.13219	-0.00391
2937.20363	-0.00393
2935.27506	-0.00394
2933.34650	-0.00395
2931.41793	-0.00397
2929.48937	-0.00400
2927.56080	-0.00403
2925.63224	-0.00405
2923.70367	-0.00407
2921.77511	-0.00406
2919.84655	-0.00404
2917.91798	-0.00403
2915.98942	-0.00401
2914.06085	-0.00397
2912.13229	-0.00392
2910.20372	-0.00388
2908.27516	-0.00384
2906.34659	-0.00380
2904.41803	-0.00376
2902.48947	-0.00372
2900.56090	-0.00368
2898.63234	-0.00365
2896.70377	-0.00362
2894.77521	-0.00357
2892.84664	-0.00352
2890.91808	-0.00347
2888.98952	-0.00343
2887.06095	-0.00339
2885.13239	-0.00336
2883.20382	-0.00336
2881.27526	-0.00338
2879.34669	-0.00339
2877.41813	-0.00337
2875.48956	-0.00335
2873.56100	-0.00335
2871.63244	-0.00336
2869.70387	-0.00337
2867.77531	-0.00336
2865.84674	-0.00334
2863.91818	-0.00334
2861.98961	-0.00334
2860.06105	-0.00334
2858.13248	-0.00333
2856.20392	-0.00330
2854.27536	-0.00328
2852.34679	-0.00326
2850.41823	-0.00324
2848.48966	-0.00320
2846.56110	-0.00316
2844.63253	-0.00313
2842.70397	-0.00312
2840.77540	-0.00311
2838.84684	-0.00309
2836.91828	-0.00307
2834.98971	-0.00306
2833.06115	-0.00306
2831.13258	-0.00306
2829.20402	-0.00308
2827.27545	-0.00311
2825.34689	-0.00316
2823.41832	-0.00322
2821.48976	-0.00327
2819.56120	-0.00331
2817.63263	-0.00334
2815.70407	-0.00336
2813.77550	-0.00335
2811.84694	-0.00331
2809.91837	-0.00328
2807.98981	-0.00327
2806.06124	-0.00328
2804.13268	-0.00328
2802.20412	-0.00328
2800.27555	-0.00327
2798.34699	-0.00326
2796.41842	-0.00326
2794.48986	-0.00326
2792.56129	-0.00326
2790.63273	-0.00326
2788.70416	-0.00325
2786.77560	-0.00323
2784.84704	-0.00321
2782.91847	-0.00320
2780.98991	-0.00318
2779.06134	-0.00315
2777.13278	-0.00314
2775.20421	-0.00315
2773.27565	-0.00316
2771.34708	-0.00316
2769.41852	-0.00314
2767.48996	-0.00313
2765.56139	-0.00315
2763.63283	-0.00319
2761.70426	-0.00323
2759.77570	-0.00327
2757.84713	-0.00332
2755.91857	-0.00338
2753.99001	-0.00343
2752.06144	-0.00347
2750.13288	-0.00349
2748.20431	-0.00350
2746.27575	-0.00351
2744.34718	-0.00352
2742.41862	-0.00350
2740.49005	-0.00347
2738.56149	-0.00345
2736.63293	-0.00343
2734.70436	-0.00342
2732.77580	-0.00341
2730.84723	-0.00341
2728.91867	-0.00340
2726.99010	-0.00339
2725.06154	-0.00339
2723.13297	-0.00340
2721.20441	-0.00343
2719.27585	-0.00347
2717.34728	-0.00352
2715.41872	-0.00358
2713.49015	-0.00364
2711.56159	-0.00369
2709.63302	-0.00371
2707.70446	-0.00370
2705.77589	-0.00369
2703.84733	-0.00368
2701.91877	-0.00368
2699.99020	-0.00372
2698.06164	-0.00380
2696.13307	-0.00391
2694.20451	-0.00402
2692.27594	-0.00409
2690.34738	-0.00410
2688.41881	-0.00406
2686.49025	-0.00400
2684.56169	-0.00393
2682.63312	-0.00387
2680.70456	-0.00383
2678.77599	-0.00381
2676.84743	-0.00379
2674.91886	-0.00378
2672.99030	-0.00374
2671.06173	-0.00369
2669.13317	-0.00362
2667.20461	-0.00355
2665.27604	-0.00349
2663.34748	-0.00344
2661.41891	-0.00340
2659.49035	-0.00341
2657.56178	-0.00345
2655.63322	-0.00348
2653.70465	-0.00351
2651.77609	-0.00356
2649.84753	-0.00364
2647.91896	-0.00378
2645.99040	-0.00397
2644.06183	-0.00416
2642.13327	-0.00428
2640.20470	-0.00429
2638.27614	-0.00420
2636.34757	-0.00404
2634.41901	-0.00389
2632.49045	-0.00376
2630.56188	-0.00365
2628.63332	-0.00355
2626.70475	-0.00347
2624.77619	-0.00340
2622.84762	-0.00334
2620.91906	-0.00330
2618.99049	-0.00325
2617.06193	-0.00320
2615.13337	-0.00317
2613.20480	-0.00315
2611.27624	-0.00313
2609.34767	-0.00311
2607.41911	-0.00309
2605.49054	-0.00307
2603.56198	-0.00306
2601.63342	-0.00306
2599.70485	-0.00307
2597.77629	-0.00310
2595.84772	-0.00312
2593.91916	-0.00314
2591.99059	-0.00317
2590.06203	-0.00320
2588.13346	-0.00327
2586.20490	-0.00340
2584.27634	-0.00358
2582.34777	-0.00373
2580.41921	-0.00377
2578.49064	-0.00372
2576.56208	-0.00360
2574.63351	-0.00347
2572.70495	-0.00337
2570.77638	-0.00329
2568.84782	-0.00321
2566.91926	-0.00315
2564.99069	-0.00311
2563.06213	-0.00307
2561.13356	-0.00305
2559.20500	-0.00302
2557.27643	-0.00299
2555.34787	-0.00296
2553.41930	-0.00295
2551.49074	-0.00294
2549.56218	-0.00294
2547.63361	-0.00294
2545.70505	-0.00294
2543.77648	-0.00292
2541.84792	-0.00289
2539.91935	-0.00288
2537.99079	-0.00288
2536.06222	-0.00287
2534.13366	-0.00285
2532.20510	-0.00284
2530.27653	-0.00283
2528.34797	-0.00284
2526.41940	-0.00284
2524.49084	-0.00283
2522.56227	-0.00283
2520.63371	-0.00283
2518.70514	-0.00282
2516.77658	-0.00280
2514.84802	-0.00279
2512.91945	-0.00279
2510.99089	-0.00279
2509.06232	-0.00280
2507.13376	-0.00281
2505.20519	-0.00280
2503.27663	-0.00279
2501.34806	-0.00279
2499.41950	-0.00280
2497.49094	-0.00281
2495.56237	-0.00282
2493.63381	-0.00281
2491.70524	-0.00281
2489.77668	-0.00281
2487.84811	-0.00280
2485.91955	-0.00280
2483.99098	-0.00280
2482.06242	-0.00280
2480.13386	-0.00280
2478.20529	-0.00280
2476.27673	-0.00280
2474.34816	-0.00280
2472.41960	-0.00281
2470.49103	-0.00281
2468.56247	-0.00281
2466.63391	-0.00281
2464.70534	-0.00282
2462.77678	-0.00283
2460.84821	-0.00284
2458.91965	-0.00284
2456.99108	-0.00283
2455.06252	-0.00282
2453.13395	-0.00281
2451.20539	-0.00282
2449.27683	-0.00282
2447.34826	-0.00283
2445.41970	-0.00282
2443.49113	-0.00282
2441.56257	-0.00280
2439.63400	-0.00280
2437.70544	-0.00282
2435.77687	-0.00284
2433.84831	-0.00284
2431.91975	-0.00283
2429.99118	-0.00282
2428.06262	-0.00282
2426.13405	-0.00282
2424.20549	-0.00282
2422.27692	-0.00281
2420.34836	-0.00282
2418.41979	-0.00282
2416.49123	-0.00281
2414.56267	-0.00280
2412.63410	-0.00280
2410.70554	-0.00279
2408.77697	-0.00278
2406.84841	-0.00277
2404.91984	-0.00277
2402.99128	-0.00279
2401.06271	-0.00281
2399.13415	-0.00282
2397.20559	-0.00282
2395.27702	-0.00282
2393.34846	-0.00281
2391.41989	-0.00281
2389.49133	-0.00280
2387.56276	-0.00280
2385.63420	-0.00281
2383.70563	-0.00282
2381.77707	-0.00283
2379.84851	-0.00285
2377.91994	-0.00287
2375.99138	-0.00288
2374.06281	-0.00290
2372.13425	-0.00292
2370.20568	-0.00295
2368.27712	-0.00298
2366.34855	-0.00301
2364.41999	-0.00304
2362.49143	-0.00305
2360.56286	-0.00305
2358.63430	-0.00304
2356.70573	-0.00302
2354.77717	-0.00297
2352.84860	-0.00291
2350.92004	-0.00288
2348.99147	-0.00286
2347.06291	-0.00287
2345.13435	-0.00289
2343.20578	-0.00293
2341.27722	-0.00295
2339.34865	-0.00297
2337.42009	-0.00298
2335.49152	-0.00299
2333.56296	-0.00300
2331.63440	-0.00298
2329.70583	-0.00297
2327.77727	-0.00296
2325.84870	-0.00295
2323.92014	-0.00295
2321.99157	-0.00295
2320.06301	-0.00294
2318.13444	-0.00293
2316.20588	-0.00291
2314.27732	-0.00289
2312.34875	-0.00288
2310.42019	-0.00289
2308.49162	-0.00291
2306.56306	-0.00291
2304.63449	-0.00290
2302.70593	-0.00289
2300.77736	-0.00288
2298.84880	-0.00286
2296.92024	-0.00286
2294.99167	-0.00287
2293.06311	-0.00287
2291.13454	-0.00286
2289.20598	-0.00285
2287.27741	-0.00284
2285.34885	-0.00286
2283.42028	-0.00288
2281.49172	-0.00289
2279.56316	-0.00288
2277.63459	-0.00286
2275.70603	-0.00285
2273.77746	-0.00285
2271.84890	-0.00288
2269.92033	-0.00291
2267.99177	-0.00292
2266.06320	-0.00292
2264.13464	-0.00292
2262.20608	-0.00294
2260.27751	-0.00295
2258.34895	-0.00295
2256.42038	-0.00294
2254.49182	-0.00293
2252.56325	-0.00291
2250.63469	-0.00289
2248.70612	-0.00289
2246.77756	-0.00289
2244.84900	-0.00289
2242.92043	-0.00288
2240.99187	-0.00288
2239.06330	-0.00288
2237.13474	-0.00288
2235.20617	-0.00288
2233.27761	-0.00288
2231.34904	-0.00289
2229.42048	-0.00289
2227.49192	-0.00289
2225.56335	-0.00290
2223.63479	-0.00289
2221.70622	-0.00288
2219.77766	-0.00288
2217.84909	-0.00289
2215.92053	-0.00291
2213.99196	-0.00292
2212.06340	-0.00292
2210.13484	-0.00292
2208.20627	-0.00291
2206.27771	-0.00290
2204.34914	-0.00290
2202.42058	-0.00291
2200.49201	-0.00292
2198.56345	-0.00293
2196.63488	-0.00294
2194.70632	-0.00295
2192.77776	-0.00295
2190.84919	-0.00295
2188.92063	-0.00295
2186.99206	-0.00296
2185.06350	-0.00297
2183.13493	-0.00297
2181.20637	-0.00296
2179.27781	-0.00295
2177.34924	-0.00295
2175.42068	-0.00295
2173.49211	-0.00295
2171.56355	-0.00295
2169.63498	-0.00295
2167.70642	-0.00295
2165.77785	-0.00295
2163.84929	-0.00297
2161.92073	-0.00298
2159.99216	-0.00299
2158.06360	-0.00298
2156.13503	-0.00298
2154.20647	-0.00298
2152.27790	-0.00298
2150.34934	-0.00299
2148.42077	-0.00299
2146.49221	-0.00298
2144.56365	-0.00298
2142.63508	-0.00299
2140.70652	-0.00299
2138.77795	-0.00299
2136.84939	-0.00299
2134.92082	-0.00299
2132.99226	-0.00298
2131.06369	-0.00298
2129.13513	-0.00299
2127.20657	-0.00302
2125.27800	-0.00304
2123.34944	-0.00303
2121.42087	-0.00302
2119.49231	-0.00302
2117.56374	-0.00303
2115.63518	-0.00303
2113.70661	-0.00302
2111.77805	-0.00301
2109.84949	-0.00301
2107.92092	-0.00301
2105.99236	-0.00301
2104.06379	-0.00302
2102.13523	-0.00302
2100.20666	-0.00302
2098.27810	-0.00302
2096.34953	-0.00303
2094.42097	-0.00303
2092.49241	-0.00302
2090.56384	-0.00301
2088.63528	-0.00302
2086.70671	-0.00304
2084.77815	-0.00304
2082.84958	-0.00304
2080.92102	-0.00304
2078.99245	-0.00305
2077.06389	-0.00306
2075.13533	-0.00305
2073.20676	-0.00304
2071.27820	-0.00304
2069.34963	-0.00304
2067.42107	-0.00304
2065.49250	-0.00305
2063.56394	-0.00307
2061.63537	-0.00308
2059.70681	-0.00307
2057.77825	-0.00306
2055.84968	-0.00306
2053.92112	-0.00308
2051.99255	-0.00308
2050.06399	-0.00307
2048.13542	-0.00307
2046.20686	-0.00308
2044.27830	-0.00309
2042.34973	-0.00310
2040.42117	-0.00310
2038.49260	-0.00310
2036.56404	-0.00309
2034.63547	-0.00309
2032.70691	-0.00309
2030.77834	-0.00310
2028.84978	-0.00309
2026.92122	-0.00308
2024.99265	-0.00308
2023.06409	-0.00310
2021.13552	-0.00311
2019.20696	-0.00310
2017.27839	-0.00309
2015.34983	-0.00309
2013.42126	-0.00310
2011.49270	-0.00312
2009.56414	-0.00313
2007.63557	-0.00312
2005.70701	-0.00312
2003.77844	-0.00313
2001.84988	-0.00313
1999.92131	-0.00314
1997.99275	-0.00315
1996.06418	-0.00316
1994.13562	-0.00315
1992.20706	-0.00315
1990.27849	-0.00315
1988.34993	-0.00316
1986.42136	-0.00317
1984.49280	-0.00318
1982.56423	-0.00318
1980.63567	-0.00317
1978.70710	-0.00317
1976.77854	-0.00318
1974.84998	-0.00319
1972.92141	-0.00318
1970.99285	-0.00317
1969.06428	-0.00317
1967.13572	-0.00317
1965.20715	-0.00318
1963.27859	-0.00319
1961.35002	-0.00320
1959.42146	-0.00320
1957.49290	-0.00320
1955.56433	-0.00320
1953.63577	-0.00320
1951.70720	-0.00319
1949.77864	-0.00318
1947.85007	-0.00318
1945.92151	-0.00317
1943.99294	-0.00317
1942.06438	-0.00318
1940.13582	-0.00320
1938.20725	-0.00320
1936.27869	-0.00320
1934.35012	-0.00320
1932.42156	-0.00319
1930.49299	-0.00319
1928.56443	-0.00321
1926.63586	-0.00324
1924.70730	-0.00324
1922.77874	-0.00323
1920.85017	-0.00321
1918.92161	-0.00320
1916.99304	-0.00320
1915.06448	-0.00321
1913.13591	-0.00321
1911.20735	-0.00321
1909.27878	-0.00320
1907.35022	-0.00321
1905.42166	-0.00322
1903.49309	-0.00324
1901.56453	-0.00325
1899.63596	-0.00325
1897.70740	-0.00326
1895.77883	-0.00326
1893.85027	-0.00326
1891.92171	-0.00326
1889.99314	-0.00327
1888.06458	-0.00327
1886.13601	-0.00327
1884.20745	-0.00327
1882.27888	-0.00328
1880.35032	-0.00329
1878.42175	-0.00330
1876.49319	-0.00330
1874.56463	-0.00330
1872.63606	-0.00329
1870.70750	-0.00327
1868.77893	-0.00326
1866.85037	-0.00330
1864.92180	-0.00335
1862.99324	-0.00338
1861.06467	-0.00338
1859.13611	-0.00338
1857.20755	-0.00338
1855.27898	-0.00340
1853.35042	-0.00342
1851.42185	-0.00344
1849.49329	-0.00344
1847.56472	-0.00342
1845.63616	-0.00340
1843.70759	-0.00343
1841.77903	-0.00351
1839.85047	-0.00358
1837.92190	-0.00362
1835.99334	-0.00365
1834.06477	-0.00366
1832.13621	-0.00366
1830.20764	-0.00366
1828.27908	-0.00366
1826.35051	-0.00366
1824.42195	-0.00366
1822.49339	-0.00366
1820.56482	-0.00364
1818.63626	-0.00360
1816.70769	-0.00358
1814.77913	-0.00356
1812.85056	-0.00355
1810.92200	-0.00356
1808.99343	-0.00358
1807.06487	-0.00361
1805.13631	-0.00366
1803.20774	-0.00376
1801.27918	-0.00394
1799.35061	-0.00417
1797.42205	-0.00433
1795.49348	-0.00431
1793.56492	-0.00414
1791.63635	-0.00395
1789.70779	-0.00384
1787.77923	-0.00377
1785.85066	-0.00371
1783.92210	-0.00366
1781.99353	-0.00365
1780.06497	-0.00365
1778.13640	-0.00366
1776.20784	-0.00365
1774.27927	-0.00361
1772.35071	-0.00359
1770.42215	-0.00361
1768.49358	-0.00365
1766.56502	-0.00369
1764.63645	-0.00373
1762.70789	-0.00378
1760.77932	-0.00390
1758.85076	-0.00412
1756.92220	-0.00441
1754.99363	-0.00468
1753.06507	-0.00475
1751.13650	-0.00466
1749.20794	-0.00459
1747.27937	-0.00462
1745.35081	-0.00473
1743.42224	-0.00493
1741.49368	-0.00527
1739.56512	-0.00585
1737.63655	-0.00667
1735.70799	-0.00759
1733.77942	-0.00857
1731.85086	-0.00951
1729.92229	-0.01024
1727.99373	-0.01079
1726.06516	-0.01134
1724.13660	-0.01202
1722.20804	-0.01289
1720.27947	-0.01396
1718.35091	-0.01547
1716.42234	-0.01789
1714.49378	-0.02079
1712.56521	-0.02204
1710.63665	-0.01984
1708.70808	-0.01541
1706.77952	-0.01158
1704.85096	-0.00951
1702.92239	-0.00852
1700.99383	-0.00780
1699.06526	-0.00711
1697.13670	-0.00638
1695.20813	-0.00567
1693.27957	-0.00509
1691.35100	-0.00465
1689.42244	-0.00429
1687.49388	-0.00395
1685.56531	-0.00362
1683.63675	-0.00347
1681.70818	-0.00350
1679.77962	-0.00354
1677.85105	-0.00350
1675.92249	-0.00344
1673.99392	-0.00343
1672.06536	-0.00344
1670.13680	-0.00345
1668.20823	-0.00351
1666.27967	-0.00361
1664.35110	-0.00367
1662.42254	-0.00373
1660.49397	-0.00381
1658.56541	-0.00384
1656.63684	-0.00373
1654.70828	-0.00351
1652.77972	-0.00341
1650.85115	-0.00354
1648.92259	-0.00361
1646.99402	-0.00357
1645.06546	-0.00359
1643.13689	-0.00365
1641.20833	-0.00363
1639.27976	-0.00354
1637.35120	-0.00339
1635.42264	-0.00331
1633.49407	-0.00335
1631.56551	-0.00340
1629.63694	-0.00339
1627.70838	-0.00335
1625.77981	-0.00332
1623.85125	-0.00328
1621.92269	-0.00329
1619.99412	-0.00328
1618.06556	-0.00322
1616.13699	-0.00319
1614.20843	-0.00326
1612.27986	-0.00332
1610.35130	-0.00334
1608.42273	-0.00333
1606.49417	-0.00333
1604.56561	-0.00333
1602.63704	-0.00333
1600.70848	-0.00333
1598.77991	-0.00333
1596.85135	-0.00333
1594.92278	-0.00334
1592.99422	-0.00335
1591.06565	-0.00335
1589.13709	-0.00335
1587.20853	-0.00335
1585.27996	-0.00336
1583.35140	-0.00336
1581.42283	-0.00336
1579.49427	-0.00329
1577.56570	-0.00318
1575.63714	-0.00316
1573.70857	-0.00323
1571.78001	-0.00326
1569.85145	-0.00324
1567.92288	-0.00325
1565.99432	-0.00328
1564.06575	-0.00325
1562.13719	-0.00311
1560.20862	-0.00292
1558.28006	-0.00291
1556.35149	-0.00307
1554.42293	-0.00320
1552.49437	-0.00326
1550.56580	-0.00330
1548.63724	-0.00334
1546.70867	-0.00334
1544.78011	-0.00329
1542.85154	-0.00322
1540.92298	-0.00318
1538.99441	-0.00327
1537.06585	-0.00344
1535.13729	-0.00351
1533.20872	-0.00351
1531.28016	-0.00353
1529.35159	-0.00354
1527.42303	-0.00348
1525.49446	-0.00339
1523.56590	-0.00328
1521.63733	-0.00320
1519.70877	-0.00322
1517.78021	-0.00328
1515.85164	-0.00333
1513.92308	-0.00336
1511.99451	-0.00337
1510.06595	-0.00331
1508.13738	-0.00321
1506.20882	-0.00318
1504.28025	-0.00331
1502.35169	-0.00343
1500.42313	-0.00342
1498.49456	-0.00335
1496.56600	-0.00333
1494.63743	-0.00337
1492.70887	-0.00339
1490.78030	-0.00338
1488.85174	-0.00339
1486.92317	-0.00342
1484.99461	-0.00346
1483.06605	-0.00350
1481.13748	-0.00352
1479.20892	-0.00352
1477.28035	-0.00350
1475.35179	-0.00346
1473.42322	-0.00344
1471.49466	-0.00351
1469.56610	-0.00361
1467.63753	-0.00363
1465.70897	-0.00363
1463.78040	-0.00368
1461.85184	-0.00375
1459.92327	-0.00376
1457.99471	-0.00373
1456.06614	-0.00386
1454.13758	-0.00416
1452.20902	-0.00444
1450.28045	-0.00461
1448.35189	-0.00476
1446.42332	-0.00500
1444.49476	-0.00527
1442.56619	-0.00539
1440.63763	-0.00535
1438.70906	-0.00539
1436.78050	-0.00571
1434.85194	-0.00612
1432.92337	-0.00610
1430.99481	-0.00560
1429.06624	-0.00510
1427.13768	-0.00486
1425.20911	-0.00483
1423.28055	-0.00495
1421.35198	-0.00524
1419.42342	-0.00563
1417.49486	-0.00592
1415.56629	-0.00595
1413.63773	-0.00571
1411.70916	-0.00526
1409.78060	-0.00473
1407.85203	-0.00428
1405.92347	-0.00396
1403.99490	-0.00377
1402.06634	-0.00366
1400.13778	-0.00358
1398.20921	-0.00352
1396.28065	-0.00347
1394.35208	-0.00345
1392.42352	-0.00347
1390.49495	-0.00348
1388.56639	-0.00346
1386.63782	-0.00344
1384.70926	-0.00346
1382.78070	-0.00349
1380.85213	-0.00355
1378.92357	-0.00364
1376.99500	-0.00378
1375.06644	-0.00402
1373.13787	-0.00430
1371.20931	-0.00456
1369.28074	-0.00484
1367.35218	-0.00526
1365.42362	-0.00571
1363.49505	-0.00594
1361.56649	-0.00593
1359.63792	-0.00566
1357.70936	-0.00508
1355.78079	-0.00437
1353.85223	-0.00386
1351.92366	-0.00363
1349.99510	-0.00354
1348.06654	-0.00350
1346.13797	-0.00346
1344.20941	-0.00342
1342.28084	-0.00340
1340.35228	-0.00341
1338.42371	-0.00347
1336.49515	-0.00365
1334.56659	-0.00403
1332.63802	-0.00461
1330.70946	-0.00524
1328.78089	-0.00583
1326.85233	-0.00641
1324.92376	-0.00693
1322.99520	-0.00726
1321.06663	-0.00733
1319.13807	-0.00726
1317.20951	-0.00712
1315.28094	-0.00704
1313.35238	-0.00713
1311.42381	-0.00740
1309.49525	-0.00780
1307.56668	-0.00847
1305.63812	-0.00952
1303.70955	-0.01016
1301.78099	-0.00922
1299.85243	-0.00709
1297.92386	-0.00527
1295.99530	-0.00438
1294.06673	-0.00412
1292.13817	-0.00414
1290.20960	-0.00424
1288.28104	-0.00430
1286.35247	-0.00428
1284.42391	-0.00418
1282.49535	-0.00405
1280.56678	-0.00393
1278.63822	-0.00383
1276.70965	-0.00376
1274.78109	-0.00370
1272.85252	-0.00366
1270.92396	-0.00362
1268.99539	-0.00358
1267.06683	-0.00355
1265.13827	-0.00351
1263.20970	-0.00347
1261.28114	-0.00344
1259.35257	-0.00341
1257.42401	-0.00339
1255.49544	-0.00336
1253.56688	-0.00333
1251.63831	-0.00332
1249.70975	-0.00332
1247.78119	-0.00333
1245.85262	-0.00333
1243.92406	-0.00331
1241.99549	-0.00329
1240.06693	-0.00327
1238.13836	-0.00325
1236.20980	-0.00323
1234.28123	-0.00321
1232.35267	-0.00320
1230.42411	-0.00320
1228.49554	-0.00318
1226.56698	-0.00315
1224.63841	-0.00312
1222.70985	-0.00311
1220.78128	-0.00311
1218.85272	-0.00310
1216.92415	-0.00309
1214.99559	-0.00308
1213.06703	-0.00309
1211.13846	-0.00310
1209.20990	-0.00311
1207.28133	-0.00311
1205.35277	-0.00311
1203.42420	-0.00311
1201.49564	-0.00311
1199.56708	-0.00312
1197.63851	-0.00313
1195.70995	-0.00313
1193.78138	-0.00311
1191.85282	-0.00310
1189.92425	-0.00309
1187.99569	-0.00309
1186.06712	-0.00309
1184.13856	-0.00309
1182.21000	-0.00309
1180.28143	-0.00311
1178.35287	-0.00312
1176.42430	-0.00312
1174.49574	-0.00311
1172.56717	-0.00309
1170.63861	-0.00309
1168.71004	-0.00308
1166.78148	-0.00308
1164.85292	-0.00309
1162.92435	-0.00310
1160.99579	-0.00311
1159.06722	-0.00312
1157.13866	-0.00311
1155.21009	-0.00311
1153.28153	-0.00312
1151.35296	-0.00313
1149.42440	-0.00314
1147.49584	-0.00313
1145.56727	-0.00313
1143.63871	-0.00314
1141.71014	-0.00315
1139.78158	-0.00315
1137.85301	-0.00315
1135.92445	-0.00314
1133.99588	-0.00313
1132.06732	-0.00312
1130.13876	-0.00313
1128.21019	-0.00313
1126.28163	-0.00313
1124.35306	-0.00314
1122.42450	-0.00314
1120.49593	-0.00313
1118.56737	-0.00312
1116.63880	-0.00311
1114.71024	-0.00311
1112.78168	-0.00312
1110.85311	-0.00311
1108.92455	-0.00309
1106.99598	-0.00309
1105.06742	-0.00308
1103.13885	-0.00306
1101.21029	-0.00304
1099.28172	-0.00304
1097.35316	-0.00304
1095.42460	-0.00305
1093.49603	-0.00305
1091.56747	-0.00306
1089.63890	-0.00306
1087.71034	-0.00304
1085.78177	-0.00303
1083.85321	-0.00303
1081.92464	-0.00304
1079.99608	-0.00305
1078.06752	-0.00303
1076.13895	-0.00300
1074.21039	-0.00299
1072.28182	-0.00299
1070.35326	-0.00301
1068.42469	-0.00305
1066.49613	-0.00314
1064.56756	-0.00328
1062.63900	-0.00360
1060.71044	-0.00428
1058.78187	-0.00533
1056.85331	-0.00611
1054.92474	-0.00601
1052.99618	-0.00520
1051.06761	-0.00436
1049.13905	-0.00380
1047.21049	-0.00349
1045.28192	-0.00332
1043.35336	-0.00319
1041.42479	-0.00312
1039.49623	-0.00310
1037.56766	-0.00314
1035.63910	-0.00324
1033.71053	-0.00347
1031.78197	-0.00390
1029.85341	-0.00438
1027.92484	-0.00462
1025.99628	-0.00455
1024.06771	-0.00432
1022.13915	-0.00402
1020.21058	-0.00371
1018.28202	-0.00346
1016.35345	-0.00331
1014.42489	-0.00321
1012.49633	-0.00314
1010.56776	-0.00309
1008.63920	-0.00307
1006.71063	-0.00307
1004.78207	-0.00306
1002.85350	-0.00305
1000.92494	-0.00308
998.99637	-0.00316
997.06781	-0.00328
995.13925	-0.00339
993.21068	-0.00352
991.28212	-0.00368
989.35355	-0.00385
987.42499	-0.00407
985.49642	-0.00442
983.56786	-0.00490
981.63929	-0.00539
979.71073	-0.00572
977.78217	-0.00574
975.85360	-0.00556
973.92504	-0.00541
971.99647	-0.00553
970.06791	-0.00600
968.13934	-0.00683
966.21078	-0.00794
964.28221	-0.00923
962.35365	-0.01064
960.42509	-0.01213
958.49652	-0.01358
956.56796	-0.01467
954.63939	-0.01496
952.71083	-0.01425
950.78226	-0.01272
948.85370	-0.01084
946.92513	-0.00900
944.99657	-0.00744
943.06801	-0.00621
941.13944	-0.00530
939.21088	-0.00464
937.28231	-0.00415
935.35375	-0.00379
933.42518	-0.00356
931.49662	-0.00340
929.56805	-0.00328
927.63949	-0.00320
925.71093	-0.00317
923.78236	-0.00315
921.85380	-0.00310
919.92523	-0.00304
917.99667	-0.00295
916.06810	-0.00288
914.13954	-0.00282
912.21098	-0.00279
910.28241	-0.00278
908.35385	-0.00280
906.42528	-0.00284
904.49672	-0.00289
902.56815	-0.00294
900.63959	-0.00297
898.71102	-0.00293
896.78246	-0.00283
894.85390	-0.00272
892.92533	-0.00266
890.99677	-0.00264
889.06820	-0.00264
887.13964	-0.00261
885.21107	-0.00256
883.28251	-0.00253
881.35394	-0.00253
879.42538	-0.00253
877.49682	-0.00252
875.56825	-0.00250
873.63969	-0.00246
871.71112	-0.00243
869.78256	-0.00243
867.85399	-0.00245
865.92543	-0.00244
863.99686	-0.00242
862.06830	-0.00239
860.13974	-0.00237
858.21117	-0.00236
856.28261	-0.00236
854.35404	-0.00236
852.42548	-0.00238
850.49691	-0.00237
848.56835	-0.00234
846.63978	-0.00232
844.71122	-0.00234
842.78266	-0.00240
840.85409	-0.00237
838.92553	-0.00230
836.99696	-0.00229
835.06840	-0.00228
833.13983	-0.00226
831.21127	-0.00224
829.28270	-0.00223
827.35414	-0.00224
825.42558	-0.00226
823.49701	-0.00226
821.56845	-0.00225
819.63988	-0.00222
817.71132	-0.00219
815.78275	-0.00220
813.85419	-0.00219
811.92562	-0.00211
809.99706	-0.00205
808.06850	-0.00205
806.13993	-0.00206
804.21137	-0.00205
802.28280	-0.00206
800.35424	-0.00209
798.42567	-0.00212
796.49711	-0.00208
794.56854	-0.00198
792.63998	-0.00193
790.71142	-0.00198
788.78285	-0.00206
786.85429	-0.00208
784.92572	-0.00208
782.99716	-0.00209
781.06859	-0.00212
779.14003	-0.00212
777.21147	-0.00209
775.28290	-0.00209
773.35434	-0.00213
771.42577	-0.00219
769.49721	-0.00218
767.56864	-0.00211
765.64008	-0.00207
763.71151	-0.00206
761.78295	-0.00198
759.85439	-0.00187
757.92582	-0.00182
755.99726	-0.00185
754.06869	-0.00187
752.14013	-0.00190
750.21156	-0.00213
748.28300	-0.00242
746.35443	-0.00248
744.42587	-0.00238
742.49731	-0.00244
740.56874	-0.00259
738.64018	-0.00256
736.71161	-0.00258
734.78305	-0.00275
732.85448	-0.00267
730.92592	-0.00213
728.99735	-0.00192
727.06879	-0.00259
725.14023	-0.00358
723.21166	-0.00359
721.28310	-0.00077
719.35453	0.00164
717.42597	-0.00080
715.49740	-0.00411
713.56884	-0.00468
711.64027	-0.00465
709.71171	-0.00505
707.78315	-0.00551
705.85458	-0.00591
703.92602	-0.00613
701.99745	-0.00616
700.06889	-0.00627
698.14032	-0.00637
696.21176	-0.00649
694.28319	-0.00674
692.35463	-0.00681
690.42607	-0.00669
688.49750	-0.00677
686.56894	-0.00690
684.64037	-0.00676
682.71181	-0.00657
680.78324	-0.00650
678.85468	-0.00649
676.92611	-0.00655
674.99755	-0.00667
673.06899	-0.00675
671.14042	-0.00664
669.21186	-0.00638
667.28329	-0.00615
665.35473	-0.00623
663.42616	-0.00650
661.49760	-0.00665
659.56903	-0.00662
657.64047	-0.00652
655.71191	-0.00642
653.78334	-0.00643
651.85478	-0.00660
649.92621	-0.00663
647.99765	-0.00661
646.06908	-0.00675
644.14052	-0.00687
642.21195	-0.00676
640.28339	-0.00647
638.35483	-0.00630
636.42626	-0.00642
634.49770	-0.00657
632.56913	-0.00654
630.64057	-0.00640
628.71200	-0.00627
626.78344	-0.00625
624.85488	-0.00638
622.92631	-0.00645
620.99775	-0.00639
619.06918	-0.00640
617.14062	-0.00656
615.21205	-0.00671
613.28349	-0.00671
611.35492	-0.00647
609.42636	-0.00618
607.49780	-0.00612
605.56923	-0.00630
603.64067	-0.00658
601.71210	-0.00683
599.78354	-0.00687
597.85497	-0.00685
595.92641	-0.00690
593.99784	-0.00693
592.06928	-0.00701
590.14072	-0.00722
588.21215	-0.00724
586.28359	-0.00686
584.35502	-0.00644
582.42646	-0.00626
580.49789	-0.00615
578.56933	-0.00602
576.64076	-0.00601
574.71220	-0.00614
572.78364	-0.00622
570.85507	-0.00616
568.92651	-0.00616
566.99794	-0.00632
565.06938	-0.00640
563.14081	-0.00644
561.21225	-0.00662
559.28368	-0.00676
557.35512	-0.00677
555.42656	-0.00673
553.49799	-0.00672
551.56943	-0.00683
549.64086	-0.00697
547.71230	-0.00697
545.78373	-0.00688
543.85517	-0.00683
541.92660	-0.00676
539.99804	-0.00654
538.06948	-0.00632
536.14091	-0.00643
534.21235	-0.00670
532.28378	-0.00676
530.35522	-0.00659
528.42665	-0.00637
526.49809	-0.00642
524.56952	-0.00662
522.64096	-0.00670
520.71240	-0.00679
518.78383	-0.00680
516.85527	-0.00655
514.92670	-0.00628
512.99814	-0.00634
511.06957	-0.00662
509.14101	-0.00682
507.21244	-0.00696
505.28388	-0.00714
503.35532	-0.00703
501.42675	-0.00653
499.49819	-0.00612
497.56962	-0.00610
495.64106	-0.00622
493.71249	-0.00622
491.78393	-0.00610
489.85537	-0.00599
487.92680	-0.00607
485.99824	-0.00625
484.06967	-0.00643
482.14111	-0.00660
480.21254	-0.00665
478.28398	-0.00630
476.35541	-0.00546
474.42685	-0.00513
472.49829	-0.00590
470.56972	-0.00665
468.64116	-0.00667
466.71259	-0.00656
464.78403	-0.00676
462.85546	-0.00706
460.92690	-0.00723
458.99833	-0.00688
457.06977	-0.00583
455.14121	-0.00529
453.21264	-0.00603
451.28408	-0.00682
449.35551	-0.00691
447.42695	-0.00703
445.49838	-0.00755
443.56982	-0.00785
441.64125	-0.00743
439.71269	-0.00659
437.78413	-0.00594
435.85556	-0.00575
433.92700	-0.00591
431.99843	-0.00605
430.06987	-0.00609
428.14130	-0.00638
426.21274	-0.00679
424.28417	-0.00697
422.35561	-0.00724
420.42705	-0.00781
418.49848	-0.00790
416.56992	-0.00729
414.64135	-0.00672
412.71279	-0.00667
410.78422	-0.00689
408.85566	-0.00688
406.92709	-0.00657
404.99853	-0.00635
403.06997	-0.00637
401.14140	-0.00638
399.21284	-0.00632
397.28427	-0.00642
395.35571	-0.00665
393.42714	-0.00683
391.49858	-0.00678
389.57001	-0.00672
387.64145	-0.00687
385.71289	-0.00695
383.78432	-0.00681
381.85576	-0.00663
379.92719	-0.00641
377.99863	-0.00626
376.07006	-0.00630
374.14150	-0.00633
372.21293	-0.00618
370.28437	-0.00618
368.35581	-0.00639
