3997.91406	-0.00293
3995.98550	-0.00296
3994.05693	-0.00293
3992.12837	-0.00287
3990.19980	-0.00285
3988.27124	-0.00285
3986.34268	-0.00286
3984.41411	-0.00288
3982.48555	-0.00289
3980.55698	-0.00290
3978.62842	-0.00290
3976.69985	-0.00287
3974.77129	-0.00283
3972.84272	-0.00283
3970.91416	-0.00284
3968.98560	-0.00285
3967.05703	-0.00285
3965.12847	-0.00285
3963.19990	-0.00285
3961.27134	-0.00286
3959.34277	-0.00287
3957.41421	-0.00288
3955.48564	-0.00286
3953.55708	-0.00285
3951.62852	-0.00285
3949.69995	-0.00284
3947.77139	-0.00284
3945.84282	-0.00285
3943.91426	-0.00286
3941.98569	-0.00287
3940.05713	-0.00288
3938.12856	-0.00289
3936.20000	-0.00287
3934.27144	-0.00284
3932.34287	-0.00282
3930.41431	-0.00282
3928.48574	-0.00285
3926.55718	-0.00287
3924.62861	-0.00287
3922.70005	-0.00286
3920.77148	-0.00286
3918.84292	-0.00285
3916.91436	-0.00286
3914.98579	-0.00287
3913.05723	-0.00286
3911.12866	-0.00285
3909.20010	-0.00284
3907.27153	-0.00282
3905.34297	-0.00279
3903.41440	-0.00277
3901.48584	-0.00277
3899.55728	-0.00279
3897.62871	-0.00283
3895.70015	-0.00286
3893.77158	-0.00285
3891.84302	-0.00282
3889.91445	-0.00282
3887.98589	-0.00282
3886.05733	-0.00282
3884.12876	-0.00282
3882.20020	-0.00282
3880.27163	-0.00282
3878.34307	-0.00285
3876.41450	-0.00286
3874.48594	-0.00283
3872.55737	-0.00280
3870.62881	-0.00277
3868.70025	-0.00277
3866.77168	-0.00277
3864.84312	-0.00276
3862.91455	-0.00276
3860.98599	-0.00278
3859.05742	-0.00278
3857.12886	-0.00271
3855.20029	-0.00258
3853.27173	-0.00256
3851.34317	-0.00268
3849.41460	-0.00280
3847.48604	-0.00284
3845.55747	-0.00284
3843.62891	-0.00282
3841.70034	-0.00279
3839.77178	-0.00274
3837.84321	-0.00272
3835.91465	-0.00275
3833.98609	-0.00279
3832.05752	-0.00281
3830.12896	-0.00284
3828.20039	-0.00286
3826.27183	-0.00288
3824.34326	-0.00286
3822.41470	-0.00282
3820.48613	-0.00281
3818.55757	-0.00281
3816.62901	-0.00280
3814.70044	-0.00282
3812.77188	-0.00286
3810.84331	-0.00287
3808.91475	-0.00282
3806.98618	-0.00276
3805.05762	-0.00275
3803.12905	-0.00274
3801.20049	-0.00274
3799.27193	-0.00279
3797.34336	-0.00284
3795.41480	-0.00285
3793.48623	-0.00284
3791.55767	-0.00283
3789.62910	-0.00283
3787.70054	-0.00284
3785.77197	-0.00286
3783.84341	-0.00287
3781.91485	-0.00288
3779.98628	-0.00288
3778.05772	-0.00287
3776.12915	-0.00284
3774.20059	-0.00282
3772.27202	-0.00280
3770.34346	-0.00281
3768.41489	-0.00282
3766.48633	-0.00282
3764.55777	-0.00283
3762.62920	-0.00284
3760.70064	-0.00282
3758.77207	-0.00282
3756.84351	-0.00282
3754.91494	-0.00279
3752.98638	-0.00271
3751.05781	-0.00265
3749.12925	-0.00269
3747.20069	-0.00271
3745.27212	-0.00268
3743.34356	-0.00269
3741.41499	-0.00276
3739.48643	-0.00278
3737.55786	-0.00275
3735.62930	-0.00273
3733.70074	-0.00274
3731.77217	-0.00278
3729.84361	-0.00281
3727.91504	-0.00283
3725.98648	-0.00284
3724.05791	-0.00284
3722.12935	-0.00284
3720.20078	-0.00285
3718.27222	-0.00286
3716.34366	-0.00286
3714.41509	-0.00282
3712.48653	-0.00278
3710.55796	-0.00276
3708.62940	-0.00278
3706.70083	-0.00282
3704.77227	-0.00284
3702.84370	-0.00285
3700.91514	-0.00287
3698.98658	-0.00289
3697.05801	-0.00292
3695.12945	-0.00290
3693.20088	-0.00285
3691.27232	-0.00278
3689.34375	-0.00273
3687.41519	-0.00276
3685.48662	-0.00282
3683.55806	-0.00286
3681.62950	-0.00286
3679.70093	-0.00283
3677.77237	-0.00275
3675.84380	-0.00270
3673.91524	-0.00271
3671.98667	-0.00272
3670.05811	-0.00274
3668.12954	-0.00282
3666.20098	-0.00288
3664.27242	-0.00288
3662.34385	-0.00286
3660.41529	-0.00285
3658.48672	-0.00283
3656.55816	-0.00282
3654.62959	-0.00283
3652.70103	-0.00281
3650.77246	-0.00277
3648.84390	-0.00276
3646.91534	-0.00281
3644.98677	-0.00287
3643.05821	-0.00290
3641.12964	-0.00290
3639.20108	-0.00290
3637.27251	-0.00289
3635.34395	-0.00289
3633.41538	-0.00288
3631.48682	-0.00283
3629.55826	-0.00278
3627.62969	-0.00279
3625.70113	-0.00287
3623.77256	-0.00290
3621.84400	-0.00286
3619.91543	-0.00281
3617.98687	-0.00282
3616.05830	-0.00286
3614.12974	-0.00287
3612.20118	-0.00285
3610.27261	-0.00286
3608.34405	-0.00288
3606.41548	-0.00291
3604.48692	-0.00292
3602.55835	-0.00290
3600.62979	-0.00289
3598.70123	-0.00288
3596.77266	-0.00287
3594.84410	-0.00286
3592.91553	-0.00286
3590.98697	-0.00287
3589.05840	-0.00286
3587.12984	-0.00286
3585.20127	-0.00288
3583.27271	-0.00290
3581.34415	-0.00293
3579.41558	-0.00296
3577.48702	-0.00296
3575.55845	-0.00294
3573.62989	-0.00292
3571.70132	-0.00291
3569.77276	-0.00289
3567.84419	-0.00288
3565.91563	-0.00288
3563.98707	-0.00289
3562.05850	-0.00289
3560.12994	-0.00290
3558.20137	-0.00291
3556.27281	-0.00293
3554.34424	-0.00292
3552.41568	-0.00292
3550.48711	-0.00294
3548.55855	-0.00296
3546.62999	-0.00296
3544.70142	-0.00296
3542.77286	-0.00295
3540.84429	-0.00295
3538.91573	-0.00294
3536.98716	-0.00294
3535.05860	-0.00296
3533.13003	-0.00298
3531.20147	-0.00296
3529.27291	-0.00294
3527.34434	-0.00292
3525.41578	-0.00294
3523.48721	-0.00297
3521.55865	-0.00298
3519.63008	-0.00300
3517.70152	-0.00300
3515.77295	-0.00297
3513.84439	-0.00293
3511.91583	-0.00291
3509.98726	-0.00292
3508.05870	-0.00295
3506.13013	-0.00294
3504.20157	-0.00292
3502.27300	-0.00292
3500.34444	-0.00293
3498.41587	-0.00293
3496.48731	-0.00292
3494.55875	-0.00292
3492.63018	-0.00294
3490.70162	-0.00295
3488.77305	-0.00295
3486.84449	-0.00295
3484.91592	-0.00297
3482.98736	-0.00296
3481.05879	-0.00293
3479.13023	-0.00293
3477.20167	-0.00296
3475.27310	-0.00299
3473.34454	-0.00299
3471.41597	-0.00298
3469.48741	-0.00297
3467.55884	-0.00296
3465.63028	-0.00297
3463.70171	-0.00298
3461.77315	-0.00299
3459.84459	-0.00300
3457.91602	-0.00302
3455.98746	-0.00303
3454.05889	-0.00303
3452.13033	-0.00301
3450.20176	-0.00297
3448.27320	-0.00297
3446.34464	-0.00299
3444.41607	-0.00301
3442.48751	-0.00303
3440.55894	-0.00305
3438.63038	-0.00305
3436.70181	-0.00303
3434.77325	-0.00303
3432.84468	-0.00304
3430.91612	-0.00306
3428.98756	-0.00307
3427.05899	-0.00307
3425.13043	-0.00306
3423.20186	-0.00304
3421.27330	-0.00304
3419.34473	-0.00303
3417.41617	-0.00303
3415.48760	-0.00304
3413.55904	-0.00304
3411.63048	-0.00303
3409.70191	-0.00302
3407.77335	-0.00301
3405.84478	-0.00301
3403.91622	-0.00302
3401.98765	-0.00303
3400.05909	-0.00304
3398.13052	-0.00304
3396.20196	-0.00304
3394.27340	-0.00304
3392.34483	-0.00303
3390.41627	-0.00302
3388.48770	-0.00303
3386.55914	-0.00303
3384.63057	-0.00302
3382.70201	-0.00302
3380.77344	-0.00303
3378.84488	-0.00301
3376.91632	-0.00300
3374.98775	-0.00300
3373.05919	-0.00302
3371.13062	-0.00303
3369.20206	-0.00302
3367.27349	-0.00302
3365.34493	-0.00302
3363.41636	-0.00302
3361.48780	-0.00302
3359.55924	-0.00300
3357.63067	-0.00298
3355.70211	-0.00297
3353.77354	-0.00299
3351.84498	-0.00302
3349.91641	-0.00305
3347.98785	-0.00305
3346.05928	-0.00305
3344.13072	-0.00306
3342.20216	-0.00305
3340.27359	-0.00303
3338.34503	-0.00301
3336.41646	-0.00301
3334.48790	-0.00302
3332.55933	-0.00303
3330.63077	-0.00302
3328.70220	-0.00302
3326.77364	-0.00304
3324.84508	-0.00305
3322.91651	-0.00307
3320.98795	-0.00307
3319.05938	-0.00305
3317.13082	-0.00301
3315.20225	-0.00301
3313.27369	-0.00305
3311.34513	-0.00307
3309.41656	-0.00307
3307.48800	-0.00306
3305.55943	-0.00306
3303.63087	-0.00306
3301.70230	-0.00305
3299.77374	-0.00304
3297.84517	-0.00302
3295.91661	-0.00301
3293.98805	-0.00300
3292.05948	-0.00301
3290.13092	-0.00304
3288.20235	-0.00305
3286.27379	-0.00304
3284.34522	-0.00304
3282.41666	-0.00306
3280.48809	-0.00305
3278.55953	-0.00304
3276.63097	-0.00303
3274.70240	-0.00304
3272.77384	-0.00306
3270.84527	-0.00306
3268.91671	-0.00305
3266.98814	-0.00303
3265.05958	-0.00301
3263.13101	-0.00303
3261.20245	-0.00307
3259.27389	-0.00309
3257.34532	-0.00309
3255.41676	-0.00306
3253.48819	-0.00305
3251.55963	-0.00306
3249.63106	-0.00305
3247.70250	-0.00303
3245.77393	-0.00303
3243.84537	-0.00305
3241.91681	-0.00305
3239.98824	-0.00305
3238.05968	-0.00304
3236.13111	-0.00305
3234.20255	-0.00307
3232.27398	-0.00308
3230.34542	-0.00309
3228.41685	-0.00308
3226.48829	-0.00307
3224.55973	-0.00308
3222.63116	-0.00308
3220.70260	-0.00307
3218.77403	-0.00306
3216.84547	-0.00305
3214.91690	-0.00305
3212.98834	-0.00305
3211.05977	-0.00304
3209.13121	-0.00306
3207.20265	-0.00309
3205.27408	-0.00310
3203.34552	-0.00308
3201.41695	-0.00307
3199.48839	-0.00307
3197.55982	-0.00308
3195.63126	-0.00310
3193.70269	-0.00312
3191.77413	-0.00313
3189.84557	-0.00311
3187.91700	-0.00308
3185.98844	-0.00308
3184.05987	-0.00311
3182.13131	-0.00313
3180.20274	-0.00313
3178.27418	-0.00312
3176.34562	-0.00311
3174.41705	-0.00311
3172.48849	-0.00311
3170.55992	-0.00309
3168.63136	-0.00307
3166.70279	-0.00306
3164.77423	-0.00308
3162.84566	-0.00310
3160.91710	-0.00313
3158.98854	-0.00313
3157.05997	-0.00311
3155.13141	-0.00310
3153.20284	-0.00311
3151.27428	-0.00312
3149.34571	-0.00312
3147.41715	-0.00310
3145.48858	-0.00310
3143.56002	-0.00311
3141.63146	-0.00312
3139.70289	-0.00312
3137.77433	-0.00313
3135.84576	-0.00313
3133.91720	-0.00314
3131.98863	-0.00314
3130.06007	-0.00314
3128.13150	-0.00316
3126.20294	-0.00316
3124.27438	-0.00316
3122.34581	-0.00315
3120.41725	-0.00315
3118.48868	-0.00316
3116.56012	-0.00316
3114.63155	-0.00316
3112.70299	-0.00315
3110.77442	-0.00314
3108.84586	-0.00313
3106.91730	-0.00313
3104.98873	-0.00314
3103.06017	-0.00315
3101.13160	-0.00316
3099.20304	-0.00317
3097.27447	-0.00317
3095.34591	-0.00317
3093.41734	-0.00317
3091.48878	-0.00317
3089.56022	-0.00317
3087.63165	-0.00316
3085.70309	-0.00313
3083.77452	-0.00313
3081.84596	-0.00315
3079.91739	-0.00316
3077.98883	-0.00316
3076.06026	-0.00316
3074.13170	-0.00316
3072.20314	-0.00315
3070.27457	-0.00314
3068.34601	-0.00314
3066.41744	-0.00315
3064.48888	-0.00316
3062.56031	-0.00315
3060.63175	-0.00314
3058.70318	-0.00313
3056.77462	-0.00313
3054.84606	-0.00312
3052.91749	-0.00311
3050.98893	-0.00312
3049.06036	-0.00314
3047.13180	-0.00316
3045.20323	-0.00317
3043.27467	-0.00318
3041.34610	-0.00318
3039.41754	-0.00319
3037.48898	-0.00321
3035.56041	-0.00322
3033.63185	-0.00322
3031.70328	-0.00323
3029.77472	-0.00325
3027.84615	-0.00327
3025.91759	-0.00327
3023.98903	-0.00324
3022.06046	-0.00322
3020.13190	-0.00320
3018.20333	-0.00317
3016.27477	-0.00316
3014.34620	-0.00316
3012.41764	-0.00315
3010.48907	-0.00314
3008.56051	-0.00313
3006.63195	-0.00314
3004.70338	-0.00315
3002.77482	-0.00316
3000.84625	-0.00317
2998.91769	-0.00319
2996.98912	-0.00320
2995.06056	-0.00320
2993.13199	-0.00320
2991.20343	-0.00320
2989.27487	-0.00320
2987.34630	-0.00320
2985.41774	-0.00320
2983.48917	-0.00320
2981.56061	-0.00320
2979.63204	-0.00320
2977.70348	-0.00319
2975.77491	-0.00320
2973.84635	-0.00320
2971.91779	-0.00319
2969.98922	-0.00320
2968.06066	-0.00319
2966.13209	-0.00317
2964.20353	-0.00313
2962.27496	-0.00311
2960.34640	-0.00312
2958.41783	-0.00313
2956.48927	-0.00312
2954.56071	-0.00311
2952.63214	-0.00312
2950.70358	-0.00312
2948.77501	-0.00312
2946.84645	-0.00314
2944.91788	-0.00317
2942.98932	-0.00319
2941.06075	-0.00319
2939.13219	-0.00320
2937.20363	-0.00320
2935.27506	-0.00321
2933.34650	-0.00323
2931.41793	-0.00323
2929.48937	-0.00324
2927.56080	-0.00325
2925.63224	-0.00327
2923.70367	-0.00328
2921.77511	-0.00327
2919.84655	-0.00326
2917.91798	-0.00326
2915.98942	-0.00327
2914.06085	-0.00327
2912.13229	-0.00325
2910.20372	-0.00323
2908.27516	-0.00322
2906.34659	-0.00323
2904.41803	-0.00323
2902.48947	-0.00322
2900.56090	-0.00321
2898.63234	-0.00321
2896.70377	-0.00321
2894.77521	-0.00321
2892.84664	-0.00321
2890.91808	-0.00320
2888.98952	-0.00319
2887.06095	-0.00317
2885.13239	-0.00316
2883.20382	-0.00316
2881.27526	-0.00318
2879.34669	-0.00320
2877.41813	-0.00319
2875.48956	-0.00317
2873.56100	-0.00316
2871.63244	-0.00316
2869.70387	-0.00317
2867.77531	-0.00317
2865.84674	-0.00317
2863.91818	-0.00317
2861.98961	-0.00317
2860.06105	-0.00317
2858.13248	-0.00316
2856.20392	-0.00315
2854.27536	-0.00317
2852.34679	-0.00319
2850.41823	-0.00320
2848.48966	-0.00319
2846.56110	-0.00319
2844.63253	-0.00319
2842.70397	-0.00319
2840.77540	-0.00319
2838.84684	-0.00320
2836.91828	-0.00319
2834.98971	-0.00318
2833.06115	-0.00318
2831.13258	-0.00318
2829.20402	-0.00318
2827.27545	-0.00318
2825.34689	-0.00320
2823.41832	-0.00322
2821.48976	-0.00324
2819.56120	-0.00325
2817.63263	-0.00327
2815.70407	-0.00329
2813.77550	-0.00329
2811.84694	-0.00328
2809.91837	-0.00327
2807.98981	-0.00327
2806.06124	-0.00328
2804.13268	-0.00327
2802.20412	-0.00326
2800.27555	-0.00327
2798.34699	-0.00327
2796.41842	-0.00327
2794.48986	-0.00325
2792.56129	-0.00325
2790.63273	-0.00327
2788.70416	-0.00327
2786.77560	-0.00326
2784.84704	-0.00326
2782.91847	-0.00327
2780.98991	-0.00328
2779.06134	-0.00328
2777.13278	-0.00328
2775.20421	-0.00327
2773.27565	-0.00327
2771.34708	-0.00325
2769.41852	-0.00324
2767.48996	-0.00323
2765.56139	-0.00324
2763.63283	-0.00327
2761.70426	-0.00330
2759.77570	-0.00332
2757.84713	-0.00334
2755.91857	-0.00337
2753.99001	-0.00341
2752.06144	-0.00344
2750.13288	-0.00345
2748.20431	-0.00345
2746.27575	-0.00346
2744.34718	-0.00347
2742.41862	-0.00347
2740.49005	-0.00346
2738.56149	-0.00345
2736.63293	-0.00343
2734.70436	-0.00342
2732.77580	-0.00342
2730.84723	-0.00342
2728.91867	-0.00342
2726.99010	-0.00340
2725.06154	-0.00339
2723.13297	-0.00339
2721.20441	-0.00341
2719.27585	-0.00342
2717.34728	-0.00344
2715.41872	-0.00347
2713.49015	-0.00352
2711.56159	-0.00356
2709.63302	-0.00358
2707.70446	-0.00358
2705.77589	-0.00356
2703.84733	-0.00353
2701.91877	-0.00352
2699.99020	-0.00353
2698.06164	-0.00357
2696.13307	-0.00363
2694.20451	-0.00368
2692.27594	-0.00369
2690.34738	-0.00364
2688.41881	-0.00358
2686.49025	-0.00352
2684.56169	-0.00344
2682.63312	-0.00338
2680.70456	-0.00333
2678.77599	-0.00331
2676.84743	-0.00331
2674.91886	-0.00332
2672.99030	-0.00334
2671.06173	-0.00336
2669.13317	-0.00337
2667.20461	-0.00338
2665.27604	-0.00338
2663.34748	-0.00338
2661.41891	-0.00339
2659.49035	-0.00340
2657.56178	-0.00343
2655.63322	-0.00345
2653.70465	-0.00347
2651.77609	-0.00349
2649.84753	-0.00351
2647.91896	-0.00356
2645.99040	-0.00363
2644.06183	-0.00370
2642.13327	-0.00372
2640.20470	-0.00370
2638.27614	-0.00363
2636.34757	-0.00351
2634.41901	-0.00340
2632.49045	-0.00331
2630.56188	-0.00323
2628.63332	-0.00317
2626.70475	-0.00312
2624.77619	-0.00311
2622.84762	-0.00313
2620.91906	-0.00316
2618.99049	-0.00320
2617.06193	-0.00323
2615.13337	-0.00327
2613.20480	-0.00329
2611.27624	-0.00331
2609.34767	-0.00333
2607.41911	-0.00336
2605.49054	-0.00337
2603.56198	-0.00337
2601.63342	-0.00337
2599.70485	-0.00337
2597.77629	-0.00338
2595.84772	-0.00338
2593.91916	-0.00339
2591.99059	-0.00342
2590.06203	-0.00344
2588.13346	-0.00348
2586.20490	-0.00354
2584.27634	-0.00363
2582.34777	-0.00370
2580.41921	-0.00370
2578.49064	-0.00362
2576.56208	-0.00354
2574.63351	-0.00348
2572.70495	-0.00346
2570.77638	-0.00345
2568.84782	-0.00343
2566.91926	-0.00340
2564.99069	-0.00337
2563.06213	-0.00335
2561.13356	-0.00334
2559.20500	-0.00333
2557.27643	-0.00331
2555.34787	-0.00329
2553.41930	-0.00327
2551.49074	-0.00327
2549.56218	-0.00326
2547.63361	-0.00325
2545.70505	-0.00324
2543.77648	-0.00323
2541.84792	-0.00321
2539.91935	-0.00320
2537.99079	-0.00321
2536.06222	-0.00321
2534.13366	-0.00321
2532.20510	-0.00322
2530.27653	-0.00323
2528.34797	-0.00324
2526.41940	-0.00325
2524.49084	-0.00326
2522.56227	-0.00328
2520.63371	-0.00330
2518.70514	-0.00330
2516.77658	-0.00330
2514.84802	-0.00331
2512.91945	-0.00332
2510.99089	-0.00332
2509.06232	-0.00330
2507.13376	-0.00329
2505.20519	-0.00329
2503.27663	-0.00330
2501.34806	-0.00330
2499.41950	-0.00331
2497.49094	-0.00332
2495.56237	-0.00331
2493.63381	-0.00329
2491.70524	-0.00329
2489.77668	-0.00329
2487.84811	-0.00328
2485.91955	-0.00328
2483.99098	-0.00328
2482.06242	-0.00329
2480.13386	-0.00328
2478.20529	-0.00328
2476.27673	-0.00329
2474.34816	-0.00327
2472.41960	-0.00326
2470.49103	-0.00326
2468.56247	-0.00327
2466.63391	-0.00329
2464.70534	-0.00329
2462.77678	-0.00329
2460.84821	-0.00329
2458.91965	-0.00328
2456.99108	-0.00327
2455.06252	-0.00327
2453.13395	-0.00327
2451.20539	-0.00329
2449.27683	-0.00330
2447.34826	-0.00329
2445.41970	-0.00328
2443.49113	-0.00327
2441.56257	-0.00327
2439.63400	-0.00326
2437.70544	-0.00325
2435.77687	-0.00327
2433.84831	-0.00328
2431.91975	-0.00327
2429.99118	-0.00326
2428.06262	-0.00326
2426.13405	-0.00328
2424.20549	-0.00327
2422.27692	-0.00325
2420.34836	-0.00324
2418.41979	-0.00325
2416.49123	-0.00325
2414.56267	-0.00325
2412.63410	-0.00325
2410.70554	-0.00325
2408.77697	-0.00323
2406.84841	-0.00322
2404.91984	-0.00323
2402.99128	-0.00324
2401.06271	-0.00325
2399.13415	-0.00326
2397.20559	-0.00327
2395.27702	-0.00326
2393.34846	-0.00324
2391.41989	-0.00323
2389.49133	-0.00323
2387.56276	-0.00323
2385.63420	-0.00323
2383.70563	-0.00323
2381.77707	-0.00324
2379.84851	-0.00325
2377.91994	-0.00328
2375.99138	-0.00329
2374.06281	-0.00330
2372.13425	-0.00332
2370.20568	-0.00334
2368.27712	-0.00337
2366.34855	-0.00339
2364.41999	-0.00340
2362.49143	-0.00341
2360.56286	-0.00341
2358.63430	-0.00340
2356.70573	-0.00339
2354.77717	-0.00336
2352.84860	-0.00331
2350.92004	-0.00328
2348.99147	-0.00327
2347.06291	-0.00328
2345.13435	-0.00330
2343.20578	-0.00332
2341.27722	-0.00333
2339.34865	-0.00334
2337.42009	-0.00333
2335.49152	-0.00333
2333.56296	-0.00332
2331.63440	-0.00332
2329.70583	-0.00331
2327.77727	-0.00330
2325.84870	-0.00328
2323.92014	-0.00326
2321.99157	-0.00325
2320.06301	-0.00325
2318.13444	-0.00326
2316.20588	-0.00324
2314.27732	-0.00322
2312.34875	-0.00320
2310.42019	-0.00320
2308.49162	-0.00320
2306.56306	-0.00320
2304.63449	-0.00320
2302.70593	-0.00320
2300.77736	-0.00319
2298.84880	-0.00317
2296.92024	-0.00316
2294.99167	-0.00317
2293.06311	-0.00318
2291.13454	-0.00318
2289.20598	-0.00318
2287.27741	-0.00317
2285.34885	-0.00318
2283.42028	-0.00319
2281.49172	-0.00319
2279.56316	-0.00317
2277.63459	-0.00316
2275.70603	-0.00314
2273.77746	-0.00314
2271.84890	-0.00316
2269.92033	-0.00317
2267.99177	-0.00317
2266.06320	-0.00316
2264.13464	-0.00316
2262.20608	-0.00318
2260.27751	-0.00319
2258.34895	-0.00320
2256.42038	-0.00320
2254.49182	-0.00319
2252.56325	-0.00317
2250.63469	-0.00317
2248.70612	-0.00316
2246.77756	-0.00316
2244.84900	-0.00315
2242.92043	-0.00314
2240.99187	-0.00313
2239.06330	-0.00315
2237.13474	-0.00315
2235.20617	-0.00314
2233.27761	-0.00314
2231.34904	-0.00314
2229.42048	-0.00313
2227.49192	-0.00313
2225.56335	-0.00314
2223.63479	-0.00315
2221.70622	-0.00314
2219.77766	-0.00313
2217.84909	-0.00313
2215.92053	-0.00314
2213.99196	-0.00315
2212.06340	-0.00316
2210.13484	-0.00314
2208.20627	-0.00312
2206.27771	-0.00312
2204.34914	-0.00313
2202.42058	-0.00313
2200.49201	-0.00312
2198.56345	-0.00313
2196.63488	-0.00314
2194.70632	-0.00316
2192.77776	-0.00316
2190.84919	-0.00315
2188.92063	-0.00313
2186.99206	-0.00313
2185.06350	-0.00313
2183.13493	-0.00314
2181.20637	-0.00312
2179.27781	-0.00310
2177.34924	-0.00310
2175.42068	-0.00310
2173.49211	-0.00311
2171.56355	-0.00313
2169.63498	-0.00313
2167.70642	-0.00312
2165.77785	-0.00311
2163.84929	-0.00311
2161.92073	-0.00311
2159.99216	-0.00311
2158.06360	-0.00311
2156.13503	-0.00310
2154.20647	-0.00310
2152.27790	-0.00310
2150.34934	-0.00311
2148.42077	-0.00311
2146.49221	-0.00310
2144.56365	-0.00310
2142.63508	-0.00311
2140.70652	-0.00312
2138.77795	-0.00314
2136.84939	-0.00314
2134.92082	-0.00312
2132.99226	-0.00309
2131.06369	-0.00308
2129.13513	-0.00309
2127.20657	-0.00311
2125.27800	-0.00311
2123.34944	-0.00311
2121.42087	-0.00311
2119.49231	-0.00310
2117.56374	-0.00309
2115.63518	-0.00309
2113.70661	-0.00309
2111.77805	-0.00310
2109.84949	-0.00311
2107.92092	-0.00311
2105.99236	-0.00311
2104.06379	-0.00311
2102.13523	-0.00310
2100.20666	-0.00309
2098.27810	-0.00309
2096.34953	-0.00308
2094.42097	-0.00308
2092.49241	-0.00307
2090.56384	-0.00306
2088.63528	-0.00308
2086.70671	-0.00311
2084.77815	-0.00312
2082.84958	-0.00310
2080.92102	-0.00309
2078.99245	-0.00309
2077.06389	-0.00310
2075.13533	-0.00309
2073.20676	-0.00308
2071.27820	-0.00308
2069.34963	-0.00307
2067.42107	-0.00306
2065.49250	-0.00306
2063.56394	-0.00308
2061.63537	-0.00309
2059.70681	-0.00309
2057.77825	-0.00308
2055.84968	-0.00309
2053.92112	-0.00310
2051.99255	-0.00309
2050.06399	-0.00307
2048.13542	-0.00307
2046.20686	-0.00308
2044.27830	-0.00309
2042.34973	-0.00308
2040.42117	-0.00308
2038.49260	-0.00307
2036.56404	-0.00306
2034.63547	-0.00307
2032.70691	-0.00307
2030.77834	-0.00307
2028.84978	-0.00305
2026.92122	-0.00304
2024.99265	-0.00304
2023.06409	-0.00305
2021.13552	-0.00308
2019.20696	-0.00308
2017.27839	-0.00307
2015.34983	-0.00306
2013.42126	-0.00307
2011.49270	-0.00307
2009.56414	-0.00307
2007.63557	-0.00305
2005.70701	-0.00305
2003.77844	-0.00305
2001.84988	-0.00305
1999.92131	-0.00305
1997.99275	-0.00306
1996.06418	-0.00306
1994.13562	-0.00306
1992.20706	-0.00305
1990.27849	-0.00305
1988.34993	-0.00305
1986.42136	-0.00306
1984.49280	-0.00307
1982.56423	-0.00306
1980.63567	-0.00305
1978.70710	-0.00304
1976.77854	-0.00305
1974.84998	-0.00307
1972.92141	-0.00307
1970.99285	-0.00305
1969.06428	-0.00304
1967.13572	-0.00305
1965.20715	-0.00306
1963.27859	-0.00307
1961.35002	-0.00308
1959.42146	-0.00307
1957.49290	-0.00306
1955.56433	-0.00305
1953.63577	-0.00304
1951.70720	-0.00304
1949.77864	-0.00304
1947.85007	-0.00305
1945.92151	-0.00304
1943.99294	-0.00302
1942.06438	-0.00302
1940.13582	-0.00304
1938.20725	-0.00304
1936.27869	-0.00303
1934.35012	-0.00302
1932.42156	-0.00302
1930.49299	-0.00303
1928.56443	-0.00305
1926.63586	-0.00305
1924.70730	-0.00305
1922.77874	-0.00304
1920.85017	-0.00302
1918.92161	-0.00301
1916.99304	-0.00301
1915.06448	-0.00302
1913.13591	-0.00302
1911.20735	-0.00301
1909.27878	-0.00300
1907.35022	-0.00300
1905.42166	-0.00301
1903.49309	-0.00302
1901.56453	-0.00302
1899.63596	-0.00301
1897.70740	-0.00300
1895.77883	-0.00301
1893.85027	-0.00301
1891.92171	-0.00301
1889.99314	-0.00300
1888.06458	-0.00300
1886.13601	-0.00300
1884.20745	-0.00300
1882.27888	-0.00301
1880.35032	-0.00301
1878.42175	-0.00300
1876.49319	-0.00299
1874.56463	-0.00299
1872.63606	-0.00299
1870.70750	-0.00297
1868.77893	-0.00295
1866.85037	-0.00296
1864.92180	-0.00299
1862.99324	-0.00301
1861.06467	-0.00301
1859.13611	-0.00302
1857.20755	-0.00303
1855.27898	-0.00303
1853.35042	-0.00303
1851.42185	-0.00303
1849.49329	-0.00302
1847.56472	-0.00300
1845.63616	-0.00298
1843.70759	-0.00299
1841.77903	-0.00303
1839.85047	-0.00308
1837.92190	-0.00309
1835.99334	-0.00310
1834.06477	-0.00310
1832.13621	-0.00310
1830.20764	-0.00309
1828.27908	-0.00308
1826.35051	-0.00307
1824.42195	-0.00306
1822.49339	-0.00305
1820.56482	-0.00304
1818.63626	-0.00302
1816.70769	-0.00301
1814.77913	-0.00299
1812.85056	-0.00298
1810.92200	-0.00297
1808.99343	-0.00298
1807.06487	-0.00300
1805.13631	-0.00302
1803.20774	-0.00305
1801.27918	-0.00311
1799.35061	-0.00314
1797.42205	-0.00309
1795.49348	-0.00294
1793.56492	-0.00277
1791.63635	-0.00271
1789.70779	-0.00277
1787.77923	-0.00286
1785.85066	-0.00291
1783.92210	-0.00294
1781.99353	-0.00296
1780.06497	-0.00298
1778.13640	-0.00299
1776.20784	-0.00298
1774.27927	-0.00294
1772.35071	-0.00291
1770.42215	-0.00292
1768.49358	-0.00293
1766.56502	-0.00293
1764.63645	-0.00292
1762.70789	-0.00290
1760.77932	-0.00283
1758.85076	-0.00261
1756.92220	-0.00204
1754.99363	-0.00122
1753.06507	-0.00063
1751.13650	-0.00061
1749.20794	-0.00104
1747.27937	-0.00156
1745.35081	-0.00199
1743.42224	-0.00234
1741.49368	-0.00268
1739.56512	-0.00313
1737.63655	-0.00375
1735.70799	-0.00444
1733.77942	-0.00510
1731.85086	-0.00563
1729.92229	-0.00589
1727.99373	-0.00590
1726.06516	-0.00585
1724.13660	-0.00590
1722.20804	-0.00611
1720.27947	-0.00644
1718.35091	-0.00706
1716.42234	-0.00819
1714.49378	-0.00943
1712.56521	-0.00943
1710.63665	-0.00758
1708.70808	-0.00516
1706.77952	-0.00366
1704.85096	-0.00315
1702.92239	-0.00300
1700.99383	-0.00293
1699.06526	-0.00299
1697.13670	-0.00314
1695.20813	-0.00329
1693.27957	-0.00338
1691.35100	-0.00335
1689.42244	-0.00326
1687.49388	-0.00314
1685.56531	-0.00300
1683.63675	-0.00294
1681.70818	-0.00298
1679.77962	-0.00301
1677.85105	-0.00298
1675.92249	-0.00294
1673.99392	-0.00291
1672.06536	-0.00286
1670.13680	-0.00279
1668.20823	-0.00272
1666.27967	-0.00263
1664.35110	-0.00246
1662.42254	-0.00228
1660.49397	-0.00219
1658.56541	-0.00220
1656.63684	-0.00221
1654.70828	-0.00216
1652.77972	-0.00217
1650.85115	-0.00226
1648.92259	-0.00228
1646.99402	-0.00221
1645.06546	-0.00221
1643.13689	-0.00229
1641.20833	-0.00237
1639.27976	-0.00241
1637.35120	-0.00244
1635.42264	-0.00250
1633.49407	-0.00262
1631.56551	-0.00272
1629.63694	-0.00277
1627.70838	-0.00279
1625.77981	-0.00280
1623.85125	-0.00280
1621.92269	-0.00283
1619.99412	-0.00285
1618.06556	-0.00284
1616.13699	-0.00284
1614.20843	-0.00290
1612.27986	-0.00295
1610.35130	-0.00297
1608.42273	-0.00297
1606.49417	-0.00297
1604.56561	-0.00297
1602.63704	-0.00297
1600.70848	-0.00298
1598.77991	-0.00297
1596.85135	-0.00296
1594.92278	-0.00298
1592.99422	-0.00298
1591.06565	-0.00298
1589.13709	-0.00298
1587.20853	-0.00299
1585.27996	-0.00299
1583.35140	-0.00299
1581.42283	-0.00298
1579.49427	-0.00292
1577.56570	-0.00284
1575.63714	-0.00283
1573.70857	-0.00288
1571.78001	-0.00290
1569.85145	-0.00287
1567.92288	-0.00287
1565.99432	-0.00289
1564.06575	-0.00287
1562.13719	-0.00277
1560.20862	-0.00264
1558.28006	-0.00263
1556.35149	-0.00274
1554.42293	-0.00284
1552.49437	-0.00289
1550.56580	-0.00290
1548.63724	-0.00290
1546.70867	-0.00288
1544.78011	-0.00284
1542.85154	-0.00278
1540.92298	-0.00272
1538.99441	-0.00275
1537.06585	-0.00284
1535.13729	-0.00289
1533.20872	-0.00290
1531.28016	-0.00292
1529.35159	-0.00292
1527.42303	-0.00288
1525.49446	-0.00283
1523.56590	-0.00277
1521.63733	-0.00273
1519.70877	-0.00275
1517.78021	-0.00281
1515.85164	-0.00286
1513.92308	-0.00289
1511.99451	-0.00291
1510.06595	-0.00287
1508.13738	-0.00279
1506.20882	-0.00277
1504.28025	-0.00285
1502.35169	-0.00293
1500.42313	-0.00293
1498.49456	-0.00287
1496.56600	-0.00283
1494.63743	-0.00284
1492.70887	-0.00286
1490.78030	-0.00286
1488.85174	-0.00286
1486.92317	-0.00289
1484.99461	-0.00291
1483.06605	-0.00293
1481.13748	-0.00292
1479.20892	-0.00292
1477.28035	-0.00290
1475.35179	-0.00286
1473.42322	-0.00284
1471.49466	-0.00288
1469.56610	-0.00294
1467.63753	-0.00295
1465.70897	-0.00293
1463.78040	-0.00294
1461.85184	-0.00297
1459.92327	-0.00293
1457.99471	-0.00286
1456.06614	-0.00288
1454.13758	-0.00300
1452.20902	-0.00310
1450.28045	-0.00313
1448.35189	-0.00314
1446.42332	-0.00323
1444.49476	-0.00335
1442.56619	-0.00336
1440.63763	-0.00325
1438.70906	-0.00316
1436.78050	-0.00329
1434.85194	-0.00359
1432.92337	-0.00370
1430.99481	-0.00348
1429.06624	-0.00318
1427.13768	-0.00297
1425.20911	-0.00288
1423.28055	-0.00293
1421.35198	-0.00311
1419.42342	-0.00330
1417.49486	-0.00339
1415.56629	-0.00335
1413.63773	-0.00321
1411.70916	-0.00304
1409.78060	-0.00290
1407.85203	-0.00282
1405.92347	-0.00280
1403.99490	-0.00281
1402.06634	-0.00284
1400.13778	-0.00286
1398.20921	-0.00285
1396.28065	-0.00285
1394.35208	-0.00286
1392.42352	-0.00288
1390.49495	-0.00288
1388.56639	-0.00288
1386.63782	-0.00290
1384.70926	-0.00293
1382.78070	-0.00294
1380.85213	-0.00296
1378.92357	-0.00297
1376.99500	-0.00296
1375.06644	-0.00297
1373.13787	-0.00299
1371.20931	-0.00304
1369.28074	-0.00314
1367.35218	-0.00332
1365.42362	-0.00351
1363.49505	-0.00362
1361.56649	-0.00369
1359.63792	-0.00366
1357.70936	-0.00344
1355.78079	-0.00310
1353.85223	-0.00286
1351.92366	-0.00280
1349.99510	-0.00284
1348.06654	-0.00289
1346.13797	-0.00292
1344.20941	-0.00291
1342.28084	-0.00290
1340.35228	-0.00290
1338.42371	-0.00293
1336.49515	-0.00304
1334.56659	-0.00326
1332.63802	-0.00356
1330.70946	-0.00379
1328.78089	-0.00393
1326.85233	-0.00409
1324.92376	-0.00424
1322.99520	-0.00428
1321.06663	-0.00419
1319.13807	-0.00404
1317.20951	-0.00390
1315.28094	-0.00380
1313.35238	-0.00375
1311.42381	-0.00371
1309.49525	-0.00366
1307.56668	-0.00375
1305.63812	-0.00406
1303.70955	-0.00416
1301.78099	-0.00362
1299.85243	-0.00288
1297.92386	-0.00252
1295.99530	-0.00241
1294.06673	-0.00222
1292.13817	-0.00185
1290.20960	-0.00137
1288.28104	-0.00095
1286.35247	-0.00080
1284.42391	-0.00091
1282.49535	-0.00117
1280.56678	-0.00147
1278.63822	-0.00177
1276.70965	-0.00207
1274.78109	-0.00234
1272.85252	-0.00255
1270.92396	-0.00268
1268.99539	-0.00276
1267.06683	-0.00282
1265.13827	-0.00285
1263.20970	-0.00285
1261.28114	-0.00285
1259.35257	-0.00286
1257.42401	-0.00287
1255.49544	-0.00287
1253.56688	-0.00286
1251.63831	-0.00287
1249.70975	-0.00287
1247.78119	-0.00286
1245.85262	-0.00285
1243.92406	-0.00284
1241.99549	-0.00283
1240.06693	-0.00281
1238.13836	-0.00279
1236.20980	-0.00277
1234.28123	-0.00277
1232.35267	-0.00278
1230.42411	-0.00278
1228.49554	-0.00277
1226.56698	-0.00275
1224.63841	-0.00273
1222.70985	-0.00272
1220.78128	-0.00271
1218.85272	-0.00270
1216.92415	-0.00270
1214.99559	-0.00270
1213.06703	-0.00271
1211.13846	-0.00272
1209.20990	-0.00272
1207.28133	-0.00271
1205.35277	-0.00271
1203.42420	-0.00271
1201.49564	-0.00272
1199.56708	-0.00273
1197.63851	-0.00274
1195.70995	-0.00274
1193.78138	-0.00272
1191.85282	-0.00271
1189.92425	-0.00270
1187.99569	-0.00271
1186.06712	-0.00271
1184.13856	-0.00271
1182.21000	-0.00270
1180.28143	-0.00271
1178.35287	-0.00271
1176.42430	-0.00269
1174.49574	-0.00268
1172.56717	-0.00269
1170.63861	-0.00270
1168.71004	-0.00271
1166.78148	-0.00272
1164.85292	-0.00272
1162.92435	-0.00271
1160.99579	-0.00270
1159.06722	-0.00269
1157.13866	-0.00267
1155.21009	-0.00265
1153.28153	-0.00266
1151.35296	-0.00267
1149.42440	-0.00267
1147.49584	-0.00267
1145.56727	-0.00268
1143.63871	-0.00268
1141.71014	-0.00267
1139.78158	-0.00268
1137.85301	-0.00268
1135.92445	-0.00268
1133.99588	-0.00266
1132.06732	-0.00265
1130.13876	-0.00265
1128.21019	-0.00266
1126.28163	-0.00265
1124.35306	-0.00265
1122.42450	-0.00265
1120.49593	-0.00264
1118.56737	-0.00263
1116.63880	-0.00262
1114.71024	-0.00262
1112.78168	-0.00263
1110.85311	-0.00263
1108.92455	-0.00262
1106.99598	-0.00261
1105.06742	-0.00260
1103.13885	-0.00257
1101.21029	-0.00254
1099.28172	-0.00252
1097.35316	-0.00252
1095.42460	-0.00253
1093.49603	-0.00253
1091.56747	-0.00254
1089.63890	-0.00256
1087.71034	-0.00256
1085.78177	-0.00255
1083.85321	-0.00255
1081.92464	-0.00254
1079.99608	-0.00252
1078.06752	-0.00249
1076.13895	-0.00249
1074.21039	-0.00250
1072.28182	-0.00249
1070.35326	-0.00247
1068.42469	-0.00246
1066.49613	-0.00247
1064.56756	-0.00250
1062.63900	-0.00258
1060.71044	-0.00281
1058.78187	-0.00320
1056.85331	-0.00338
1054.92474	-0.00311
1052.99618	-0.00267
1051.06761	-0.00241
1049.13905	-0.00237
1047.21049	-0.00239
1045.28192	-0.00241
1043.35336	-0.00241
1041.42479	-0.00239
1039.49623	-0.00239
1037.56766	-0.00241
1035.63910	-0.00244
1033.71053	-0.00250
1031.78197	-0.00261
1029.85341	-0.00271
1027.92484	-0.00266
1025.99628	-0.00250
1024.06771	-0.00236
1022.13915	-0.00231
1020.21058	-0.00232
1018.28202	-0.00237
1016.35345	-0.00240
1014.42489	-0.00240
1012.49633	-0.00240
1010.56776	-0.00238
1008.63920	-0.00237
1006.71063	-0.00235
1004.78207	-0.00232
1002.85350	-0.00230
1000.92494	-0.00232
998.99637	-0.00236
997.06781	-0.00238
995.13925	-0.00238
993.21068	-0.00237
991.28212	-0.00237
989.35355	-0.00238
987.42499	-0.00245
985.49642	-0.00263
983.56786	-0.00288
981.63929	-0.00310
979.71073	-0.00317
977.78217	-0.00306
975.85360	-0.00287
973.92504	-0.00274
971.99647	-0.00274
970.06791	-0.00286
968.13934	-0.00308
966.21078	-0.00335
964.28221	-0.00363
962.35365	-0.00396
960.42509	-0.00442
958.49652	-0.00497
956.56796	-0.00540
954.63939	-0.00547
952.71083	-0.00509
950.78226	-0.00438
948.85370	-0.00359
946.92513	-0.00293
944.99657	-0.00245
943.06801	-0.00213
941.13944	-0.00194
939.21088	-0.00180
937.28231	-0.00168
935.35375	-0.00157
933.42518	-0.00145
931.49662	-0.00129
929.56805	-0.00110
927.63949	-0.00091
925.71093	-0.00077
923.78236	-0.00072
921.85380	-0.00080
919.92523	-0.00099
917.99667	-0.00123
916.06810	-0.00146
914.13954	-0.00167
912.21098	-0.00184
910.28241	-0.00190
908.35385	-0.00179
906.42528	-0.00158
904.49672	-0.00147
902.56815	-0.00158
900.63959	-0.00179
898.71102	-0.00195
896.78246	-0.00201
894.85390	-0.00204
892.92533	-0.00206
890.99677	-0.00208
889.06820	-0.00207
887.13964	-0.00202
885.21107	-0.00201
883.28251	-0.00204
881.35394	-0.00208
879.42538	-0.00211
877.49682	-0.00214
875.56825	-0.00217
873.63969	-0.00217
871.71112	-0.00216
869.78256	-0.00215
867.85399	-0.00213
865.92543	-0.00212
863.99686	-0.00212
862.06830	-0.00213
860.13974	-0.00214
858.21117	-0.00215
856.28261	-0.00216
854.35404	-0.00217
852.42548	-0.00217
850.49691	-0.00214
848.56835	-0.00209
846.63978	-0.00205
844.71122	-0.00203
842.78266	-0.00207
840.85409	-0.00212
838.92553	-0.00212
836.99696	-0.00209
835.06840	-0.00205
833.13983	-0.00203
831.21127	-0.00202
829.28270	-0.00199
827.35414	-0.00201
825.42558	-0.00203
823.49701	-0.00202
821.56845	-0.00199
819.63988	-0.00194
817.71132	-0.00190
815.78275	-0.00191
813.85419	-0.00193
811.92562	-0.00193
809.99706	-0.00195
808.06850	-0.00198
806.13993	-0.00196
804.21137	-0.00193
802.28280	-0.00194
800.35424	-0.00199
798.42567	-0.00204
796.49711	-0.00200
794.56854	-0.00189
792.63998	-0.00183
790.71142	-0.00191
788.78285	-0.00203
786.85429	-0.00204
784.92572	-0.00196
782.99716	-0.00189
781.06859	-0.00190
779.14003	-0.00195
777.21147	-0.00201
775.28290	-0.00204
773.35434	-0.00201
771.42577	-0.00199
769.49721	-0.00198
767.56864	-0.00196
765.64008	-0.00197
763.71151	-0.00200
761.78295	-0.00193
759.85439	-0.00182
757.92582	-0.00177
755.99726	-0.00177
754.06869	-0.00175
752.14013	-0.00174
750.21156	-0.00193
748.28300	-0.00224
746.35443	-0.00238
744.42587	-0.00233
742.49731	-0.00228
740.56874	-0.00232
738.64018	-0.00239
736.71161	-0.00264
734.78305	-0.00306
732.85448	-0.00315
730.92592	-0.00267
728.99735	-0.00234
727.06879	-0.00280
725.14023	-0.00360
723.21166	-0.00399
721.28310	-0.00327
719.35453	-0.00240
717.42597	-0.00316
715.49740	-0.00452
713.56884	-0.00493
711.64027	-0.00500
709.71171	-0.00534
707.78315	-0.00565
705.85458	-0.00577
703.92602	-0.00588
701.99745	-0.00601
700.06889	-0.00617
698.14032	-0.00637
696.21176	-0.00656
694.28319	-0.00679
692.35463	-0.00685
690.42607	-0.00658
688.49750	-0.00628
686.56894	-0.00617
684.64037	-0.00629
682.71181	-0.00660
680.78324	-0.00674
678.85468	-0.00660
676.92611	-0.00654
674.99755	-0.00663
673.06899	-0.00670
671.14042	-0.00669
669.21186	-0.00660
667.28329	-0.00648
665.35473	-0.00651
663.42616	-0.00666
661.49760	-0.00673
659.56903	-0.00658
657.64047	-0.00637
655.71191	-0.00631
653.78334	-0.00640
651.85478	-0.00656
649.92621	-0.00672
647.99765	-0.00691
646.06908	-0.00704
644.14052	-0.00702
642.21195	-0.00693
640.28339	-0.00674
638.35483	-0.00654
636.42626	-0.00659
634.49770	-0.00678
632.56913	-0.00681
630.64057	-0.00662
628.71200	-0.00641
626.78344	-0.00639
624.85488	-0.00655
622.92631	-0.00671
620.99775	-0.00680
619.06918	-0.00684
617.14062	-0.00678
615.21205	-0.00665
613.28349	-0.00650
611.35492	-0.00642
609.42636	-0.00640
607.49780	-0.00638
605.56923	-0.00637
603.64067	-0.00648
601.71210	-0.00664
599.78354	-0.00659
597.85497	-0.00648
595.92641	-0.00660
593.99784	-0.00680
592.06928	-0.00692
590.14072	-0.00702
588.21215	-0.00700
586.28359	-0.00681
584.35502	-0.00666
582.42646	-0.00661
580.49789	-0.00645
578.56933	-0.00618
576.64076	-0.00599
574.71220	-0.00598
572.78364	-0.00607
570.85507	-0.00605
568.92651	-0.00600
566.99794	-0.00612
565.06938	-0.00636
563.14081	-0.00652
561.21225	-0.00656
559.28368	-0.00663
557.35512	-0.00677
555.42656	-0.00687
553.49799	-0.00681
551.56943	-0.00672
549.64086	-0.00671
547.71230	-0.00676
545.78373	-0.00681
543.85517	-0.00684
541.92660	-0.00688
539.99804	-0.00694
538.06948	-0.00695
536.14091	-0.00692
534.21235	-0.00692
532.28378	-0.00689
530.35522	-0.00673
528.42665	-0.00648
526.49809	-0.00641
524.56952	-0.00654
522.64096	-0.00656
520.71240	-0.00651
518.78383	-0.00657
516.85527	-0.00663
514.92670	-0.00664
512.99814	-0.00676
511.06957	-0.00689
509.14101	-0.00684
507.21244	-0.00687
505.28388	-0.00708
503.35532	-0.00702
501.42675	-0.00649
499.49819	-0.00603
497.56962	-0.00609
495.64106	-0.00640
493.71249	-0.00652
491.78393	-0.00643
489.85537	-0.00634
487.92680	-0.00633
485.99824	-0.00632
484.06967	-0.00636
482.14111	-0.00638
480.21254	-0.00628
478.28398	-0.00595
476.35541	-0.00533
474.42685	-0.00508
472.49829	-0.00561
470.56972	-0.00610
468.64116	-0.00618
466.71259	-0.00621
464.78403	-0.00610
462.85546	-0.00607
460.92690	-0.00660
458.99833	-0.00708
457.06977	-0.00662
455.14121	-0.00567
453.21264	-0.00539
451.28408	-0.00592
449.35551	-0.00690
447.42695	-0.00872
445.49838	-0.01039
443.56982	-0.01008
441.64125	-0.00855
439.71269	-0.00711
437.78413	-0.00605
435.85556	-0.00575
433.92700	-0.00604
431.99843	-0.00645
430.06987	-0.00678
428.14130	-0.00676
426.21274	-0.00650
424.28417	-0.00665
422.35561	-0.00721
420.42705	-0.00741
418.49848	-0.00707
416.56992	-0.00674
414.64135	-0.00668
412.71279	-0.00664
410.78422	-0.00659
408.85566	-0.00646
406.92709	-0.00625
404.99853	-0.00634
403.06997	-0.00667
401.14140	-0.00673
399.21284	-0.00636
397.28427	-0.00598
395.35571	-0.00603
393.42714	-0.00638
391.49858	-0.00654
389.57001	-0.00651
387.64145	-0.00672
385.71289	-0.00684
383.78432	-0.00642
381.85576	-0.00581
379.92719	-0.00553
377.99863	-0.00560
376.07006	-0.00570
374.14150	-0.00562
372.21293	-0.00543
370.28437	-0.00538
368.35581	-0.00553
