3997.9	0.0000076
3996.0	0.0000024
3994.1	-0.0000000
3992.1	-0.0000062
3990.2	-0.0000134
3988.3	-0.0000115
3986.3	-0.0000025
3984.4	0.0000003
3982.5	-0.0000074
3980.6	-0.0000159
3978.6	-0.0000106
3976.7	0.0000009
3974.8	-0.0000039
3972.8	-0.0000205
3970.9	-0.0000291
3969.0	-0.0000242
3967.1	-0.0000105
3965.1	0.0000021
3963.2	0.0000049
3961.3	-0.0000016
3959.3	-0.0000097
3957.4	-0.0000202
3955.5	-0.0000355
3953.6	-0.0000413
3951.6	-0.0000327
3949.7	-0.0000243
3947.8	-0.0000201
3945.8	-0.0000111
3943.9	0.0000021
3942.0	0.0000059
3940.1	-0.0000044
3938.1	-0.0000117
3936.2	-0.0000049
3934.3	0.0000060
3932.3	0.0000095
3930.4	0.0000057
3928.5	0.0000007
3926.6	-0.0000015
3924.6	-0.0000006
3922.7	0.0000051
3920.8	0.0000143
3918.8	0.0000193
3916.9	0.0000167
3915.0	0.0000092
3913.1	-0.0000005
3911.1	-0.0000061
3909.2	-0.0000033
3907.3	0.0000002
3905.3	-0.0000018
3903.4	-0.0000039
3901.5	-0.0000027
3899.6	-0.0000025
3897.6	-0.0000052
3895.7	-0.0000072
3893.8	-0.0000043
3891.8	0.0000015
3889.9	0.0000026
3888.0	0.0000047
3886.1	0.0000119
3884.1	0.0000137
3882.2	0.0000124
3880.3	0.0000067
3878.3	-0.0000065
3876.4	-0.0000122
3874.5	-0.0000054
3872.6	0.0000051
3870.6	0.0000109
3868.7	0.0000091
3866.8	0.0000107
3864.8	0.0000186
3862.9	0.0000214
3861.0	0.0000158
3859.1	0.0000099
3857.1	0.0000191
3855.2	0.0000423
3853.3	0.0000462
3851.3	0.0000236
3849.4	0.0000081
3847.5	0.0000068
3845.6	0.0000050
3843.6	0.0000010
3841.7	0.0000027
3839.8	0.0000112
3837.8	0.0000099
3835.9	-0.0000067
3834.0	-0.0000175
3832.1	-0.0000100
3830.1	0.0000011
3828.2	-0.0000010
3826.3	-0.0000076
3824.3	0.0000035
3822.4	0.0000269
3820.5	0.0000371
3818.6	0.0000380
3816.6	0.0000418
3814.7	0.0000300
3812.8	0.0000014
3810.8	-0.0000151
3808.9	-0.0000119
3807.0	-0.0000071
3805.1	-0.0000019
3803.1	0.0000193
3801.2	0.0000357
3799.3	0.0000190
3797.3	-0.0000097
3795.4	-0.0000247
3793.5	-0.0000271
3791.6	-0.0000260
3789.6	-0.0000292
3787.7	-0.0000313
3785.8	-0.0000205
3783.8	-0.0000047
3781.9	0.0000034
3780.0	0.0000078
3778.1	0.0000096
3776.1	0.0000033
3774.2	-0.0000056
3772.3	-0.0000102
3770.3	-0.0000152
3768.4	-0.0000211
3766.5	-0.0000158
3764.6	-0.0000019
3762.6	0.0000034
3760.7	0.0000012
3758.8	0.0000045
3756.8	0.0000168
3754.9	0.0000383
3753.0	0.0000602
3751.1	0.0000611
3749.1	0.0000430
3747.2	0.0000343
3745.3	0.0000376
3743.3	0.0000327
3741.4	0.0000268
3739.5	0.0000398
3737.6	0.0000619
3735.6	0.0000704
3733.7	0.0000645
3731.8	0.0000511
3729.8	0.0000328
3727.9	0.0000207
3726.0	0.0000177
3724.1	0.0000177
3722.1	0.0000236
3720.2	0.0000295
3718.3	0.0000225
3716.3	0.0000108
3714.4	0.0000120
3712.5	0.0000227
3710.6	0.0000268
3708.6	0.0000150
3706.7	-0.0000060
3704.8	-0.0000201
3702.8	-0.0000184
3700.9	-0.0000124
3699.0	-0.0000113
3697.1	-0.0000093
3695.1	-0.0000039
3693.2	0.0000021
3691.3	0.0000143
3689.3	0.0000292
3687.4	0.0000231
3685.5	-0.0000017
3683.6	-0.0000122
3681.6	0.0000010
3679.7	0.0000243
3677.8	0.0000483
3675.8	0.0000564
3673.9	0.0000463
3672.0	0.0000419
3670.1	0.0000432
3668.1	0.0000349
3666.2	0.0000228
3664.3	0.0000116
3662.3	0.0000033
3660.4	0.0000049
3658.5	0.0000089
3656.6	0.0000074
3654.6	0.0000061
3652.7	0.0000109
3650.8	0.0000188
3648.8	0.0000211
3646.9	0.0000133
3645.0	0.0000034
3643.1	0.0000011
3641.1	0.0000031
3639.2	0.0000095
3637.3	0.0000215
3635.3	0.0000295
3633.4	0.0000330
3631.5	0.0000418
3629.6	0.0000503
3627.6	0.0000432
3625.7	0.0000257
3623.8	0.0000185
3621.8	0.0000255
3619.9	0.0000326
3618.0	0.0000298
3616.1	0.0000252
3614.1	0.0000271
3612.2	0.0000282
3610.3	0.0000221
3608.3	0.0000151
3606.4	0.0000136
3604.5	0.0000172
3602.6	0.0000189
3600.6	0.0000163
3598.7	0.0000196
3596.8	0.0000267
3594.8	0.0000222
3592.9	0.0000138
3591.0	0.0000178
3589.1	0.0000225
3587.1	0.0000127
3585.2	-0.0000033
3583.3	-0.0000111
3581.3	-0.0000055
3579.4	0.0000089
3577.5	0.0000190
3575.6	0.0000143
3573.6	0.0000010
3571.7	-0.0000016
3569.8	0.0000144
3567.8	0.0000290
3565.9	0.0000218
3564.0	0.0000113
3562.1	0.0000170
3560.1	0.0000232
3558.2	0.0000180
3556.3	0.0000102
3554.3	0.0000056
3552.4	0.0000020
3550.5	0.0000027
3548.6	0.0000171
3546.6	0.0000324
3544.7	0.0000292
3542.8	0.0000210
3540.8	0.0000255
3538.9	0.0000308
3537.0	0.0000244
3535.1	0.0000156
3533.1	0.0000137
3531.2	0.0000181
3529.3	0.0000233
3527.3	0.0000258
3525.4	0.0000267
3523.5	0.0000243
3521.6	0.0000189
3519.6	0.0000154
3517.7	0.0000130
3515.8	0.0000130
3513.8	0.0000183
3511.9	0.0000265
3510.0	0.0000312
3508.1	0.0000273
3506.1	0.0000222
3504.2	0.0000249
3502.3	0.0000274
3500.3	0.0000201
3498.4	0.0000098
3496.5	0.0000051
3494.6	0.0000017
3492.6	-0.0000010
3490.7	0.0000025
3488.8	0.0000067
3486.8	0.0000074
3484.9	0.0000127
3483.0	0.0000179
3481.1	0.0000147
3479.1	0.0000149
3477.2	0.0000214
3475.3	0.0000237
3473.3	0.0000248
3471.4	0.0000247
3469.5	0.0000112
3467.6	-0.0000118
3465.6	-0.0000289
3463.7	-0.0000370
3461.8	-0.0000365
3459.8	-0.0000218
3457.9	0.0000045
3456.0	0.0000234
3454.1	0.0000169
3452.1	-0.0000037
3450.2	-0.0000111
3448.3	-0.0000024
3446.3	0.0000051
3444.4	0.0000064
3442.5	0.0000056
3440.6	0.0000029
3438.6	0.0000025
3436.7	0.0000049
3434.8	0.0000051
3432.8	0.0000029
3430.9	0.0000013
3429.0	0.0000025
3427.1	0.0000086
3425.1	0.0000203
3423.2	0.0000329
3421.3	0.0000328
3419.3	0.0000150
3417.4	-0.0000004
3415.5	0.0000045
3413.6	0.0000165
3411.6	0.0000198
3409.7	0.0000199
3407.8	0.0000224
3405.8	0.0000266
3403.9	0.0000305
3402.0	0.0000301
3400.1	0.0000262
3398.1	0.0000259
3396.2	0.0000278
3394.3	0.0000238
3392.3	0.0000192
3390.4	0.0000207
3388.5	0.0000174
3386.6	0.0000039
3384.6	-0.0000040
3382.7	0.0000057
3380.8	0.0000216
3378.8	0.0000274
3376.9	0.0000246
3375.0	0.0000232
3373.1	0.0000220
3371.1	0.0000157
3369.2	0.0000046
3367.3	-0.0000071
3365.3	-0.0000111
3363.4	-0.0000072
3361.5	-0.0000075
3359.6	-0.0000056
3357.6	0.0000118
3355.7	0.0000308
3353.8	0.0000343
3351.8	0.0000228
3349.9	0.0000088
3348.0	0.0000088
3346.1	0.0000182
3344.1	0.0000139
3342.2	-0.0000024
3340.3	-0.0000090
3338.3	0.0000000
3336.4	0.0000150
3334.5	0.0000216
3332.6	0.0000155
3330.6	0.0000074
3328.7	0.0000045
3326.8	0.0000031
3324.8	-0.0000036
3322.9	-0.0000112
3321.0	-0.0000107
3319.1	-0.0000080
3317.1	-0.0000102
3315.2	-0.0000139
3313.3	-0.0000127
3311.3	-0.0000057
3309.4	-0.0000017
3307.5	-0.0000020
3305.6	0.0000037
3303.6	0.0000064
3301.7	-0.0000019
3299.8	-0.0000043
3297.8	0.0000029
3295.9	0.0000089
3294.0	0.0000117
3292.1	0.0000078
3290.1	0.0000001
3288.2	-0.0000045
3286.3	-0.0000100
3284.3	-0.0000160
3282.4	-0.0000166
3280.5	-0.0000138
3278.6	-0.0000068
3276.6	0.0000021
3274.7	0.0000031
3272.8	-0.0000026
3270.8	-0.0000077
3268.9	-0.0000101
3267.0	-0.0000111
3265.1	-0.0000166
3263.1	-0.0000234
3261.2	-0.0000240
3259.3	-0.0000197
3257.3	-0.0000139
3255.4	-0.0000129
3253.5	-0.0000197
3251.6	-0.0000248
3249.6	-0.0000227
3247.7	-0.0000251
3245.8	-0.0000383
3243.8	-0.0000459
3241.9	-0.0000399
3240.0	-0.0000353
3238.1	-0.0000363
3236.1	-0.0000342
3234.2	-0.0000344
3232.3	-0.0000432
3230.3	-0.0000562
3228.4	-0.0000676
3226.5	-0.0000744
3224.6	-0.0000790
3222.6	-0.0000801
3220.7	-0.0000720
3218.8	-0.0000672
3216.8	-0.0000761
3214.9	-0.0000880
3213.0	-0.0000941
3211.1	-0.0000943
3209.1	-0.0000943
3207.2	-0.0001080
3205.3	-0.0001320
3203.3	-0.0001393
3201.4	-0.0001307
3199.5	-0.0001308
3197.6	-0.0001401
3195.6	-0.0001467
3193.7	-0.0001494
3191.8	-0.0001510
3189.8	-0.0001540
3187.9	-0.0001623
3186.0	-0.0001741
3184.1	-0.0001795
3182.1	-0.0001788
3180.2	-0.0001850
3178.3	-0.0001981
3176.3	-0.0002063
3174.4	-0.0002090
3172.5	-0.0002106
3170.6	-0.0002119
3168.6	-0.0002142
3166.7	-0.0002178
3164.8	-0.0002216
3162.8	-0.0002208
3160.9	-0.0002158
3159.0	-0.0002177
3157.1	-0.0002311
3155.1	-0.0002492
3153.2	-0.0002655
3151.3	-0.0002762
3149.3	-0.0002833
3147.4	-0.0002902
3145.5	-0.0002931
3143.6	-0.0002892
3141.6	-0.0002872
3139.7	-0.0002961
3137.8	-0.0003077
3135.8	-0.0003126
3133.9	-0.0003150
3132.0	-0.0003203
3130.1	-0.0003251
3128.1	-0.0003263
3126.2	-0.0003300
3124.3	-0.0003453
3122.3	-0.0003715
3120.4	-0.0003955
3118.5	-0.0004046
3116.6	-0.0004005
3114.6	-0.0003959
3112.7	-0.0003961
3110.8	-0.0003979
3108.8	-0.0004035
3106.9	-0.0004183
3105.0	-0.0004357
3103.1	-0.0004467
3101.1	-0.0004543
3099.2	-0.0004603
3097.3	-0.0004635
3095.3	-0.0004637
3093.4	-0.0004627
3091.5	-0.0004635
3089.6	-0.0004624
3087.6	-0.0004575
3085.7	-0.0004547
3083.8	-0.0004544
3081.8	-0.0004537
3079.9	-0.0004583
3078.0	-0.0004740
3076.1	-0.0004889
3074.1	-0.0004907
3072.2	-0.0004850
3070.3	-0.0004829
3068.3	-0.0004860
3066.4	-0.0004844
3064.5	-0.0004770
3062.6	-0.0004752
3060.6	-0.0004822
3058.7	-0.0004937
3056.8	-0.0005012
3054.8	-0.0005040
3052.9	-0.0005130
3051.0	-0.0005302
3049.1	-0.0005494
3047.1	-0.0005657
3045.2	-0.0005739
3043.3	-0.0005783
3041.3	-0.0005895
3039.4	-0.0006032
3037.5	-0.0006100
3035.6	-0.0006155
3033.6	-0.0006298
3031.7	-0.0006466
3029.8	-0.0006486
3027.8	-0.0006348
3025.9	-0.0006220
3024.0	-0.0006175
3022.1	-0.0006170
3020.1	-0.0006223
3018.2	-0.0006329
3016.3	-0.0006332
3014.3	-0.0006161
3012.4	-0.0005973
3010.5	-0.0005915
3008.6	-0.0005962
3006.6	-0.0006062
3004.7	-0.0006164
3002.8	-0.0006211
3000.8	-0.0006182
2998.9	-0.0006134
2997.0	-0.0006179
2995.1	-0.0006328
2993.1	-0.0006460
2991.2	-0.0006512
2989.3	-0.0006514
2987.3	-0.0006477
2985.4	-0.0006382
2983.5	-0.0006266
2981.6	-0.0006157
2979.6	-0.0006030
2977.7	-0.0005883
2975.8	-0.0005718
2973.8	-0.0005508
2971.9	-0.0005261
2970.0	-0.0005034
2968.1	-0.0004877
2966.1	-0.0004820
2964.2	-0.0004841
2962.3	-0.0004870
2960.3	-0.0004905
2958.4	-0.0004951
2956.5	-0.0004970
2954.6	-0.0004975
2952.6	-0.0005023
2950.7	-0.0005169
2948.8	-0.0005388
2946.8	-0.0005607
2944.9	-0.0005798
2943.0	-0.0005931
2941.1	-0.0006005
2939.1	-0.0006096
2937.2	-0.0006195
2935.3	-0.0006254
2933.3	-0.0006309
2931.4	-0.0006393
2929.5	-0.0006493
2927.6	-0.0006516
2925.6	-0.0006400
2923.7	-0.0006277
2921.8	-0.0006209
2919.8	-0.0006075
2917.9	-0.0005864
2916.0	-0.0005686
2914.1	-0.0005590
2912.1	-0.0005480
2910.2	-0.0005273
2908.3	-0.0005072
2906.3	-0.0004950
2904.4	-0.0004826
2902.5	-0.0004691
2900.6	-0.0004574
2898.6	-0.0004417
2896.7	-0.0004243
2894.8	-0.0004159
2892.8	-0.0004131
2890.9	-0.0004060
2889.0	-0.0003946
2887.1	-0.0003855
2885.1	-0.0003791
2883.2	-0.0003754
2881.3	-0.0003746
2879.3	-0.0003691
2877.4	-0.0003566
2875.5	-0.0003455
2873.6	-0.0003408
2871.6	-0.0003422
2869.7	-0.0003442
2867.8	-0.0003415
2865.8	-0.0003363
2863.9	-0.0003317
2862.0	-0.0003283
2860.1	-0.0003294
2858.1	-0.0003347
2856.2	-0.0003379
2854.3	-0.0003360
2852.3	-0.0003312
2850.4	-0.0003255
2848.5	-0.0003158
2846.6	-0.0003053
2844.6	-0.0003050
2842.7	-0.0003128
2840.8	-0.0003153
2838.8	-0.0003109
2836.9	-0.0003052
2835.0	-0.0002939
2833.1	-0.0002783
2831.1	-0.0002719
2829.2	-0.0002719
2827.3	-0.0002667
2825.3	-0.0002609
2823.4	-0.0002622
2821.5	-0.0002682
2819.6	-0.0002745
2817.6	-0.0002801
2815.7	-0.0002832
2813.8	-0.0002830
2811.8	-0.0002845
2809.9	-0.0002905
2808.0	-0.0002985
2806.1	-0.0003027
2804.1	-0.0003015
2802.2	-0.0002982
2800.3	-0.0002958
2798.3	-0.0002942
2796.4	-0.0002869
2794.5	-0.0002702
2792.6	-0.0002543
2790.6	-0.0002492
2788.7	-0.0002524
2786.8	-0.0002554
2784.8	-0.0002504
2782.9	-0.0002377
2781.0	-0.0002253
2779.1	-0.0002185
2777.1	-0.0002140
2775.2	-0.0002095
2773.3	-0.0002081
2771.3	-0.0002046
2769.4	-0.0001934
2767.5	-0.0001839
2765.6	-0.0001841
2763.6	-0.0001898
2761.7	-0.0001946
2759.8	-0.0001941
2757.8	-0.0001892
2755.9	-0.0001892
2754.0	-0.0001956
2752.1	-0.0002034
2750.1	-0.0002141
2748.2	-0.0002264
2746.3	-0.0002343
2744.3	-0.0002354
2742.4	-0.0002290
2740.5	-0.0002179
2738.6	-0.0002110
2736.6	-0.0002131
2734.7	-0.0002186
2732.8	-0.0002235
2730.8	-0.0002255
2728.9	-0.0002228
2727.0	-0.0002150
2725.1	-0.0002033
2723.1	-0.0001948
2721.2	-0.0001941
2719.3	-0.0001976
2717.3	-0.0002034
2715.4	-0.0002170
2713.5	-0.0002362
2711.6	-0.0002477
2709.6	-0.0002513
2707.7	-0.0002560
2705.8	-0.0002576
2703.8	-0.0002529
2701.9	-0.0002497
2700.0	-0.0002536
2698.1	-0.0002641
2696.1	-0.0002762
2694.2	-0.0002819
2692.3	-0.0002801
2690.3	-0.0002737
2688.4	-0.0002649
2686.5	-0.0002572
2684.6	-0.0002483
2682.6	-0.0002353
2680.7	-0.0002227
2678.8	-0.0002119
2676.8	-0.0001994
2674.9	-0.0001880
2673.0	-0.0001831
2671.1	-0.0001812
2669.1	-0.0001757
2667.2	-0.0001669
2665.3	-0.0001585
2663.3	-0.0001535
2661.4	-0.0001543
2659.5	-0.0001608
2657.6	-0.0001656
2655.6	-0.0001634
2653.7	-0.0001620
2651.8	-0.0001722
2649.8	-0.0001927
2647.9	-0.0002176
2646.0	-0.0002461
2644.1	-0.0002685
2642.1	-0.0002764
2640.2	-0.0002743
2638.3	-0.0002669
2636.3	-0.0002522
2634.4	-0.0002282
2632.5	-0.0002023
2630.6	-0.0001824
2628.6	-0.0001647
2626.7	-0.0001453
2624.8	-0.0001297
2622.8	-0.0001227
2620.9	-0.0001182
2619.0	-0.0001102
2617.1	-0.0001008
2615.1	-0.0000934
2613.2	-0.0000864
2611.3	-0.0000782
2609.3	-0.0000715
2607.4	-0.0000699
2605.5	-0.0000738
2603.6	-0.0000792
2601.6	-0.0000796
2599.7	-0.0000778
2597.8	-0.0000804
2595.8	-0.0000856
2593.9	-0.0000910
2592.0	-0.0000979
2590.1	-0.0001066
2588.1	-0.0001194
2586.2	-0.0001370
2584.3	-0.0001519
2582.3	-0.0001604
2580.4	-0.0001673
2578.5	-0.0001750
2576.6	-0.0001815
2574.6	-0.0001829
2572.7	-0.0001750
2570.8	-0.0001651
2568.8	-0.0001589
2566.9	-0.0001479
2565.0	-0.0001341
2563.1	-0.0001262
2561.1	-0.0001139
2559.2	-0.0000956
2557.3	-0.0000868
2555.3	-0.0000880
2553.4	-0.0000908
2551.5	-0.0000930
2549.6	-0.0000913
2547.6	-0.0000821
2545.7	-0.0000688
2543.8	-0.0000590
2541.8	-0.0000543
2539.9	-0.0000537
2538.0	-0.0000564
2536.1	-0.0000565
2534.1	-0.0000539
2532.2	-0.0000536
2530.3	-0.0000518
2528.3	-0.0000418
2526.4	-0.0000307
2524.5	-0.0000299
2522.6	-0.0000359
2520.6	-0.0000399
2518.7	-0.0000400
2516.8	-0.0000335
2514.8	-0.0000233
2512.9	-0.0000206
2511.0	-0.0000272
2509.1	-0.0000360
2507.1	-0.0000408
2505.2	-0.0000380
2503.3	-0.0000309
2501.3	-0.0000255
2499.4	-0.0000226
2497.5	-0.0000245
2495.6	-0.0000320
2493.6	-0.0000342
2491.7	-0.0000222
2489.8	-0.0000059
2487.8	0.0000010
2485.9	-0.0000003
2484.0	-0.0000032
2482.1	-0.0000044
2480.1	-0.0000029
2478.2	-0.0000039
2476.3	-0.0000087
2474.3	-0.0000088
2472.4	-0.0000060
2470.5	-0.0000098
2468.6	-0.0000172
2466.6	-0.0000171
2464.7	-0.0000093
2462.8	-0.0000032
2460.8	-0.0000017
2458.9	-0.0000017
2457.0	-0.0000043
2455.1	-0.0000062
2453.1	-0.0000048
2451.2	-0.0000050
2449.3	-0.0000047
2447.3	-0.0000000
2445.4	0.0000013
2443.5	-0.0000035
2441.6	-0.0000040
2439.6	0.0000012
2437.7	0.0000047
2435.8	0.0000065
2433.8	0.0000086
2431.9	0.0000087
2430.0	0.0000045
2428.1	0.0000025
2426.1	0.0000085
2424.2	0.0000139
2422.3	0.0000112
2420.3	0.0000034
2418.4	-0.0000059
2416.5	-0.0000126
2414.6	-0.0000102
2412.6	-0.0000003
2410.7	0.0000068
2408.8	0.0000057
2406.8	-0.0000000
2404.9	-0.0000034
2403.0	0.0000056
2401.1	0.0000225
2399.1	0.0000259
2397.2	0.0000156
2395.3	0.0000073
2393.3	0.0000023
2391.4	-0.0000006
2389.5	0.0000027
2387.6	0.0000097
2385.6	0.0000159
2383.7	0.0000173
2381.8	0.0000102
2379.8	0.0000002
2377.9	-0.0000064
2376.0	-0.0000157
2374.1	-0.0000331
2372.1	-0.0000516
2370.2	-0.0000612
2368.3	-0.0000661
2366.3	-0.0000729
2364.4	-0.0000764
2362.5	-0.0000775
2360.6	-0.0000812
2358.6	-0.0000810
2356.7	-0.0000721
2354.8	-0.0000603
2352.8	-0.0000452
2350.9	-0.0000250
2349.0	-0.0000137
2347.1	-0.0000237
2345.1	-0.0000457
2343.2	-0.0000634
2341.3	-0.0000690
2339.3	-0.0000669
2337.4	-0.0000634
2335.5	-0.0000558
2333.6	-0.0000447
2331.6	-0.0000396
2329.7	-0.0000404
2327.8	-0.0000415
2325.8	-0.0000441
2323.9	-0.0000472
2322.0	-0.0000441
2320.1	-0.0000346
2318.1	-0.0000268
2316.2	-0.0000209
2314.3	-0.0000145
2312.3	-0.0000154
2310.4	-0.0000236
2308.5	-0.0000248
2306.6	-0.0000158
2304.6	-0.0000099
2302.7	-0.0000137
2300.8	-0.0000180
2298.8	-0.0000158
2296.9	-0.0000112
2295.0	-0.0000083
2293.1	-0.0000048
2291.1	-0.0000028
2289.2	-0.0000086
2287.3	-0.0000163
2285.3	-0.0000158
2283.4	-0.0000111
2281.5	-0.0000102
2279.6	-0.0000086
2277.6	-0.0000024
2275.7	0.0000056
2273.8	0.0000129
2271.8	0.0000213
2269.9	0.0000389
2268.0	0.0000666
2266.1	0.0000978
2264.1	0.0001332
2262.2	0.0001717
2260.3	0.0002007
2258.3	0.0002069
2256.4	0.0001900
2254.5	0.0001618
2252.6	0.0001324
2250.6	0.0001048
2248.7	0.0000794
2246.8	0.0000576
2244.8	0.0000398
2242.9	0.0000232
2241.0	0.0000089
2239.1	0.0000009
2237.1	-0.0000012
2235.2	-0.0000031
2233.3	-0.0000059
2231.3	-0.0000076
2229.4	-0.0000082
2227.5	-0.0000078
2225.6	-0.0000049
2223.6	-0.0000021
2221.7	0.0000001
2219.8	0.0000016
2217.8	0.0000022
2215.9	0.0000063
2214.0	0.0000131
2212.1	0.0000132
2210.1	0.0000058
2208.2	0.0000008
2206.3	0.0000034
2204.3	0.0000042
2202.4	-0.0000046
2200.5	-0.0000169
2198.6	-0.0000255
2196.6	-0.0000284
2194.7	-0.0000246
2192.8	-0.0000173
2190.8	-0.0000138
2188.9	-0.0000171
2187.0	-0.0000215
2185.1	-0.0000210
2183.1	-0.0000191
2181.2	-0.0000230
2179.3	-0.0000308
2177.3	-0.0000339
2175.4	-0.0000268
2173.5	-0.0000148
2171.6	-0.0000095
2169.6	-0.0000113
2167.7	-0.0000126
2165.8	-0.0000078
2163.8	0.0000003
2161.9	0.0000025
2160.0	-0.0000009
2158.1	-0.0000025
2156.1	-0.0000049
2154.2	-0.0000118
2152.3	-0.0000185
2150.3	-0.0000205
2148.4	-0.0000189
2146.5	-0.0000135
2144.6	-0.0000035
2142.6	0.0000042
2140.7	0.0000045
2138.8	0.0000021
2136.8	0.0000039
2134.9	0.0000108
2133.0	0.0000155
2131.1	0.0000145
2129.1	0.0000144
2127.2	0.0000191
2125.3	0.0000218
2123.3	0.0000186
2121.4	0.0000161
2119.5	0.0000195
2117.6	0.0000228
2115.6	0.0000181
2113.7	0.0000093
2111.8	0.0000063
2109.8	0.0000111
2107.9	0.0000133
2106.0	0.0000093
2104.1	0.0000067
2102.1	0.0000085
2100.2	0.0000155
2098.3	0.0000262
2096.3	0.0000311
2094.4	0.0000276
2092.5	0.0000228
2090.6	0.0000176
2088.6	0.0000120
2086.7	0.0000099
2084.8	0.0000111
2082.8	0.0000126
2080.9	0.0000155
2079.0	0.0000227
2077.1	0.0000276
2075.1	0.0000242
2073.2	0.0000199
2071.3	0.0000227
2069.3	0.0000307
2067.4	0.0000363
2065.5	0.0000376
2063.6	0.0000373
2061.6	0.0000366
2059.7	0.0000346
2057.8	0.0000318
2055.8	0.0000320
2053.9	0.0000366
2052.0	0.0000385
2050.1	0.0000295
2048.1	0.0000139
2046.2	0.0000087
2044.3	0.0000177
2042.3	0.0000283
2040.4	0.0000287
2038.5	0.0000187
2036.6	0.0000083
2034.6	0.0000077
2032.7	0.0000152
2030.8	0.0000300
2028.8	0.0000481
2026.9	0.0000463
2025.0	0.0000229
2023.1	0.0000077
2021.1	0.0000061
2019.2	0.0000087
2017.3	0.0000155
2015.3	0.0000227
2013.4	0.0000291
2011.5	0.0000341
2009.6	0.0000313
2007.6	0.0000258
2005.7	0.0000224
2003.8	0.0000156
2001.8	0.0000086
1999.9	0.0000063
1998.0	0.0000053
1996.1	0.0000033
1994.1	0.0000039
1992.2	0.0000114
1990.3	0.0000188
1988.3	0.0000181
1986.4	0.0000152
1984.5	0.0000156
1982.6	0.0000166
1980.6	0.0000170
1978.7	0.0000157
1976.8	0.0000132
1974.8	0.0000112
1972.9	0.0000097
1971.0	0.0000123
1969.1	0.0000194
1967.1	0.0000210
1965.2	0.0000152
1963.3	0.0000115
1961.4	0.0000120
1959.4	0.0000147
1957.5	0.0000165
1955.6	0.0000150
1953.6	0.0000132
1951.7	0.0000126
1949.8	0.0000112
1947.9	0.0000110
1945.9	0.0000135
1944.0	0.0000149
1942.1	0.0000156
1940.1	0.0000182
1938.2	0.0000179
1936.3	0.0000137
1934.4	0.0000132
1932.4	0.0000186
1930.5	0.0000227
1928.6	0.0000206
1926.6	0.0000168
1924.7	0.0000157
1922.8	0.0000168
1920.9	0.0000207
1918.9	0.0000241
1917.0	0.0000203
1915.1	0.0000123
1913.1	0.0000118
1911.2	0.0000153
1909.3	0.0000133
1907.4	0.0000084
1905.4	0.0000073
1903.5	0.0000101
1901.6	0.0000120
1899.6	0.0000120
1897.7	0.0000155
1895.8	0.0000203
1893.9	0.0000173
1891.9	0.0000092
1890.0	0.0000042
1888.1	0.0000034
1886.1	0.0000048
1884.2	0.0000050
1882.3	0.0000007
1880.4	-0.0000069
1878.4	-0.0000132
1876.5	-0.0000129
1874.6	-0.0000089
1872.6	-0.0000077
1870.7	-0.0000075
1868.8	-0.0000060
1866.9	-0.0000089
1864.9	-0.0000204
1863.0	-0.0000352
1861.1	-0.0000458
1859.1	-0.0000503
1857.2	-0.0000514
1855.3	-0.0000535
1853.4	-0.0000597
1851.4	-0.0000684
1849.5	-0.0000752
1847.6	-0.0000777
1845.6	-0.0000788
1843.7	-0.0000862
1841.8	-0.0000999
1839.9	-0.0001099
1837.9	-0.0001131
1836.0	-0.0001158
1834.1	-0.0001218
1832.1	-0.0001291
1830.2	-0.0001388
1828.3	-0.0001546
1826.4	-0.0001713
1824.4	-0.0001825
1822.5	-0.0001886
1820.6	-0.0001940
1818.6	-0.0002047
1816.7	-0.0002153
1814.8	-0.0002173
1812.9	-0.0002144
1810.9	-0.0002140
1809.0	-0.0002189
1807.1	-0.0002284
1805.1	-0.0002381
1803.2	-0.0002455
1801.3	-0.0002575
1799.4	-0.0002791
1797.4	-0.0003034
1795.5	-0.0003210
1793.6	-0.0003280
1791.6	-0.0003278
1789.7	-0.0003246
1787.8	-0.0003137
1785.9	-0.0002880
1783.9	-0.0002522
1782.0	-0.0002202
1780.1	-0.0002020
1778.1	-0.0001971
1776.2	-0.0001930
1774.3	-0.0001812
1772.4	-0.0001765
1770.4	-0.0001946
1768.5	-0.0002256
1766.6	-0.0002574
1764.6	-0.0002874
1762.7	-0.0003175
1760.8	-0.0003567
1758.9	-0.0003984
1756.9	-0.0004219
1755.0	-0.0004189
1753.1	-0.0003994
1751.1	-0.0003861
1749.2	-0.0003961
1747.3	-0.0004270
1745.4	-0.0004739
1743.4	-0.0005513
1741.5	-0.0007109
1739.6	-0.0010402
1737.6	-0.0015807
1735.7	-0.0022586
1733.8	-0.0029131
1731.9	-0.0033603
1729.9	-0.0035172
1728.0	-0.0034416
1726.1	-0.0032412
1724.1	-0.0029965
1722.2	-0.0027424
1720.3	-0.0024833
1718.4	-0.0022293
1716.4	-0.0020063
1714.5	-0.0018128
1712.6	-0.0016270
1710.6	-0.0014538
1708.7	-0.0013046
1706.8	-0.0011769
1704.9	-0.0010735
1702.9	-0.0009917
1701.0	-0.0009262
1699.1	-0.0008858
1697.1	-0.0008648
1695.2	-0.0008511
1693.3	-0.0008479
1691.4	-0.0008476
1689.4	-0.0008398
1687.5	-0.0008130
1685.6	-0.0007725
1683.6	-0.0007617
1681.7	-0.0007860
1679.8	-0.0008014
1677.9	-0.0007924
1675.9	-0.0007725
1674.0	-0.0007507
1672.1	-0.0007249
1670.1	-0.0007017
1668.2	-0.0006958
1666.3	-0.0006928
1664.4	-0.0006719
1662.4	-0.0006438
1660.5	-0.0006242
1658.6	-0.0006056
1656.6	-0.0005679
1654.7	-0.0005095
1652.8	-0.0004716
1650.9	-0.0004757
1648.9	-0.0004801
1647.0	-0.0004689
1645.1	-0.0004679
1643.1	-0.0004746
1641.2	-0.0004669
1639.3	-0.0004451
1637.4	-0.0004211
1635.4	-0.0004085
1633.5	-0.0004146
1631.6	-0.0004251
1629.6	-0.0004256
1627.7	-0.0004220
1625.8	-0.0004217
1623.9	-0.0004214
1621.9	-0.0004191
1620.0	-0.0004058
1618.1	-0.0003788
1616.1	-0.0003678
1614.2	-0.0003812
1612.3	-0.0003882
1610.4	-0.0003795
1608.4	-0.0003702
1606.5	-0.0003672
1604.6	-0.0003661
1602.6	-0.0003634
1600.7	-0.0003544
1598.8	-0.0003336
1596.9	-0.0003064
1594.9	-0.0002830
1593.0	-0.0002645
1591.1	-0.0002454
1589.1	-0.0002228
1587.2	-0.0001971
1585.3	-0.0001681
1583.4	-0.0001404
1581.4	-0.0001198
1579.5	-0.0001010
1577.6	-0.0000775
1575.6	-0.0000639
1573.7	-0.0000665
1571.8	-0.0000641
1569.9	-0.0000522
1567.9	-0.0000462
1566.0	-0.0000479
1564.1	-0.0000436
1562.1	-0.0000217
1560.2	0.0000045
1558.3	0.0000036
1556.4	-0.0000203
1554.4	-0.0000380
1552.5	-0.0000448
1550.6	-0.0000481
1548.6	-0.0000480
1546.7	-0.0000425
1544.8	-0.0000332
1542.9	-0.0000225
1540.9	-0.0000147
1539.0	-0.0000251
1537.1	-0.0000507
1535.1	-0.0000666
1533.2	-0.0000739
1531.3	-0.0000813
1529.4	-0.0000775
1527.4	-0.0000618
1525.5	-0.0000463
1523.6	-0.0000341
1521.6	-0.0000267
1519.7	-0.0000278
1517.8	-0.0000301
1515.9	-0.0000233
1513.9	-0.0000086
1512.0	0.0000099
1510.1	0.0000318
1508.1	0.0000541
1506.2	0.0000560
1504.3	0.0000322
1502.4	0.0000102
1500.4	0.0000043
1498.5	0.0000054
1496.6	0.0000014
1494.6	-0.0000088
1492.7	-0.0000128
1490.8	-0.0000120
1488.9	-0.0000211
1486.9	-0.0000368
1485.0	-0.0000509
1483.1	-0.0000660
1481.1	-0.0000800
1479.2	-0.0000868
1477.3	-0.0000891
1475.4	-0.0000925
1473.4	-0.0001012
1471.5	-0.0001247
1469.6	-0.0001659
1467.6	-0.0002091
1465.7	-0.0002439
1463.8	-0.0002821
1461.9	-0.0003262
1459.9	-0.0003551
1458.0	-0.0003642
1456.1	-0.0003804
1454.1	-0.0004146
1452.2	-0.0004576
1450.3	-0.0005181
1448.4	-0.0006026
1446.4	-0.0006940
1444.5	-0.0007718
1442.6	-0.0008306
1440.6	-0.0008736
1438.7	-0.0008973
1436.8	-0.0009040
1434.9	-0.0009018
1432.9	-0.0008876
1431.0	-0.0008635
1429.1	-0.0008518
1427.1	-0.0008641
1425.2	-0.0008937
1423.3	-0.0009350
1421.4	-0.0009763
1419.4	-0.0010059
1417.5	-0.0010234
1415.6	-0.0010258
1413.6	-0.0010089
1411.7	-0.0009773
1409.8	-0.0009316
1407.9	-0.0008734
1405.9	-0.0008193
1404.0	-0.0007780
1402.1	-0.0007327
1400.1	-0.0006698
1398.2	-0.0005987
1396.3	-0.0005331
1394.4	-0.0004802
1392.4	-0.0004402
1390.5	-0.0004053
1388.6	-0.0003733
1386.6	-0.0003518
1384.7	-0.0003360
1382.8	-0.0003184
1380.9	-0.0003071
1378.9	-0.0003082
1377.0	-0.0003204
1375.1	-0.0003464
1373.1	-0.0003884
1371.2	-0.0004338
1369.3	-0.0004667
1367.4	-0.0004887
1365.4	-0.0005037
1363.5	-0.0005021
1361.6	-0.0004749
1359.6	-0.0004261
1357.7	-0.0003662
1355.8	-0.0003063
1353.9	-0.0002555
1351.9	-0.0002153
1350.0	-0.0001827
1348.1	-0.0001587
1346.1	-0.0001453
1344.2	-0.0001421
1342.3	-0.0001424
1340.4	-0.0001378
1338.4	-0.0001338
1336.5	-0.0001361
1334.6	-0.0001428
1332.6	-0.0001565
1330.7	-0.0001783
1328.8	-0.0002031
1326.9	-0.0002348
1324.9	-0.0002859
1323.0	-0.0003670
1321.1	-0.0004926
1319.1	-0.0006995
1317.2	-0.0010129
1315.3	-0.0013651
1313.4	-0.0016223
1311.4	-0.0017153
1309.5	-0.0016811
1307.6	-0.0015830
1305.6	-0.0014450
1303.7	-0.0012643
1301.8	-0.0010542
1299.9	-0.0008551
1297.9	-0.0007008
1296.0	-0.0005874
1294.1	-0.0004852
1292.1	-0.0003863
1290.2	-0.0003235
1288.3	-0.0003314
1286.4	-0.0003995
1284.4	-0.0004729
1282.5	-0.0005056
1280.6	-0.0004982
1278.6	-0.0004733
1276.7	-0.0004501
1274.8	-0.0004378
1272.9	-0.0004273
1270.9	-0.0004108
1269.0	-0.0003920
1267.1	-0.0003714
1265.1	-0.0003497
1263.2	-0.0003299
1261.3	-0.0003019
1259.4	-0.0002628
1257.4	-0.0002313
1255.5	-0.0002128
1253.6	-0.0001946
1251.6	-0.0001782
1249.7	-0.0001750
1247.8	-0.0001820
1245.9	-0.0001848
1243.9	-0.0001794
1242.0	-0.0001708
1240.1	-0.0001596
1238.1	-0.0001472
1236.2	-0.0001356
1234.3	-0.0001247
1232.4	-0.0001123
1230.4	-0.0000994
1228.5	-0.0000923
1226.6	-0.0000882
1224.6	-0.0000770
1222.7	-0.0000597
1220.8	-0.0000443
1218.9	-0.0000315
1216.9	-0.0000181
1215.0	-0.0000044
1213.1	0.0000054
1211.1	0.0000005
1209.2	-0.0000130
1207.3	-0.0000259
1205.4	-0.0000371
1203.4	-0.0000386
1201.5	-0.0000243
1199.6	-0.0000065
1197.6	0.0000025
1195.7	0.0000024
1193.8	0.0000010
1191.9	0.0000019
1189.9	0.0000027
1188.0	-0.0000002
1186.1	-0.0000019
1184.1	0.0000054
1182.2	0.0000206
1180.3	0.0000385
1178.4	0.0000546
1176.4	0.0000606
1174.5	0.0000527
1172.6	0.0000373
1170.6	0.0000263
1168.7	0.0000205
1166.8	0.0000159
1164.9	0.0000179
1162.9	0.0000224
1161.0	0.0000191
1159.1	0.0000151
1157.1	0.0000123
1155.2	0.0000040
1153.3	0.0000027
1151.4	0.0000153
1149.4	0.0000262
1147.5	0.0000251
1145.6	0.0000178
1143.6	0.0000134
1141.7	0.0000154
1139.8	0.0000150
1137.9	-0.0000000
1135.9	-0.0000211
1134.0	-0.0000269
1132.1	-0.0000190
1130.1	-0.0000156
1128.2	-0.0000174
1126.3	-0.0000160
1124.4	-0.0000142
1122.4	-0.0000127
1120.5	-0.0000127
1118.6	-0.0000209
1116.6	-0.0000289
1114.7	-0.0000213
1112.8	0.0000011
1110.9	0.0000205
1108.9	0.0000228
1107.0	0.0000136
1105.1	0.0000058
1103.1	0.0000032
1101.2	0.0000033
1099.3	-0.0000068
1097.4	-0.0000204
1095.4	-0.0000316
1093.5	-0.0000473
1091.6	-0.0000567
1089.6	-0.0000562
1087.7	-0.0000627
1085.8	-0.0000801
1083.9	-0.0001048
1081.9	-0.0001296
1080.0	-0.0001452
1078.1	-0.0001565
1076.1	-0.0001738
1074.2	-0.0001970
1072.3	-0.0002193
1070.4	-0.0002370
1068.4	-0.0002537
1066.5	-0.0002736
1064.6	-0.0002994
1062.6	-0.0003371
1060.7	-0.0003919
1058.8	-0.0004540
1056.9	-0.0004944
1054.9	-0.0004886
1053.0	-0.0004347
1051.1	-0.0003396
1049.1	-0.0002183
1047.2	-0.0001046
1045.3	-0.0000309
1043.4	0.0000060
1041.4	0.0000159
1039.5	0.0000099
1037.6	-0.0000210
1035.6	-0.0000723
1033.7	-0.0001215
1031.8	-0.0001611
1029.9	-0.0001967
1027.9	-0.0002329
1026.0	-0.0002647
1024.1	-0.0002814
1022.1	-0.0002814
1020.2	-0.0002602
1018.3	-0.0002099
1016.4	-0.0001419
1014.4	-0.0000772
1012.5	-0.0000317
1010.6	-0.0000072
1008.6	0.0000051
1006.7	0.0000109
1004.8	0.0000147
1002.9	0.0000201
1000.9	0.0000248
999.0	0.0000273
997.1	0.0000313
995.1	0.0000253
993.2	0.0000053
991.3	-0.0000095
989.4	-0.0000236
987.4	-0.0000530
985.5	-0.0000938
983.6	-0.0001395
981.6	-0.0001929
979.7	-0.0002540
977.8	-0.0003187
975.9	-0.0003905
973.9	-0.0004694
972.0	-0.0005411
970.1	-0.0005949
968.1	-0.0006337
966.2	-0.0006660
964.3	-0.0006850
962.4	-0.0006755
960.4	-0.0006430
958.5	-0.0006084
956.6	-0.0005761
954.6	-0.0005329
952.7	-0.0004815
950.8	-0.0004400
948.9	-0.0004139
946.9	-0.0003951
945.0	-0.0003700
943.1	-0.0003281
941.1	-0.0002832
939.2	-0.0002524
937.3	-0.0002288
935.4	-0.0002028
933.4	-0.0001842
931.5	-0.0001784
929.6	-0.0001700
927.6	-0.0001536
925.7	-0.0001321
923.8	-0.0001045
921.9	-0.0000866
919.9	-0.0000832
918.0	-0.0000786
916.1	-0.0000768
914.1	-0.0000785
912.2	-0.0000673
910.3	-0.0000525
908.4	-0.0000585
906.4	-0.0000809
904.5	-0.0000953
902.6	-0.0000977
900.6	-0.0000910
898.7	-0.0000951
896.8	-0.0001080
894.9	-0.0000999
892.9	-0.0000824
891.0	-0.0000822
889.1	-0.0000893
887.1	-0.0000902
885.2	-0.0000898
883.3	-0.0000948
881.4	-0.0000937
879.4	-0.0000826
877.5	-0.0000848
875.6	-0.0001001
873.6	-0.0000998
871.7	-0.0000868
869.8	-0.0000897
867.9	-0.0000985
865.9	-0.0000853
864.0	-0.0000685
862.1	-0.0000798
860.1	-0.0001047
858.2	-0.0001188
856.3	-0.0001232
854.4	-0.0001102
852.4	-0.0000829
850.5	-0.0000669
848.6	-0.0000706
846.6	-0.0000945
844.7	-0.0001189
842.8	-0.0001188
840.9	-0.0001177
838.9	-0.0001276
837.0	-0.0001128
835.1	-0.0000793
833.1	-0.0000698
831.2	-0.0000794
829.3	-0.0000881
827.4	-0.0000994
825.4	-0.0001214
823.5	-0.0001523
821.6	-0.0001704
819.6	-0.0001611
817.7	-0.0001272
815.8	-0.0000895
813.9	-0.0000762
811.9	-0.0000719
810.0	-0.0000634
808.1	-0.0000691
806.1	-0.0000889
804.2	-0.0001076
802.3	-0.0001158
800.4	-0.0001175
798.4	-0.0001142
796.5	-0.0001026
794.6	-0.0000983
792.6	-0.0001070
790.7	-0.0001201
788.8	-0.0001418
786.9	-0.0001527
784.9	-0.0001194
783.0	-0.0000688
781.1	-0.0000514
779.1	-0.0000646
777.2	-0.0001051
775.3	-0.0001483
773.4	-0.0001452
771.4	-0.0000783
769.5	-0.0000165
767.6	0.0000248
765.6	0.0000819
763.7	0.0001400
761.8	0.0001629
759.9	0.0001571
757.9	0.0001398
756.0	0.0001355
754.1	0.0001811
752.1	0.0002684
750.2	0.0003339
748.3	0.0003205
