3997.9	0.0000029
3996.0	0.0000130
3994.1	0.0000133
3992.1	-0.0000007
3990.2	-0.0000093
3988.3	-0.0000061
3986.3	-0.0000039
3984.4	-0.0000056
3982.5	-0.0000067
3980.6	-0.0000016
3978.6	0.0000107
3976.7	0.0000155
3974.8	0.0000012
3972.8	-0.0000139
3970.9	-0.0000156
3969.0	-0.0000119
3967.1	-0.0000129
3965.1	-0.0000191
3963.2	-0.0000189
3961.3	-0.0000117
3959.3	-0.0000110
3957.4	-0.0000175
3955.5	-0.0000209
3953.6	-0.0000152
3951.6	-0.0000076
3949.7	-0.0000075
3947.8	-0.0000109
3945.8	-0.0000110
3943.9	-0.0000089
3942.0	-0.0000087
3940.1	-0.0000126
3938.1	-0.0000163
3936.2	-0.0000176
3934.3	-0.0000214
3932.3	-0.0000244
3930.4	-0.0000231
3928.5	-0.0000207
3926.6	-0.0000174
3924.6	-0.0000185
3922.7	-0.0000206
3920.8	-0.0000102
3918.8	0.0000065
3916.9	0.0000147
3915.0	0.0000099
3913.1	-0.0000041
3911.1	-0.0000142
3909.2	-0.0000165
3907.3	-0.0000245
3905.3	-0.0000322
3903.4	-0.0000183
3901.5	0.0000065
3899.6	0.0000158
3897.6	0.0000094
3895.7	0.0000031
3893.8	0.0000079
3891.8	0.0000146
3889.9	0.0000024
3888.0	-0.0000138
3886.1	-0.0000088
3884.1	-0.0000021
3882.2	-0.0000083
3880.3	-0.0000143
3878.3	-0.0000143
3876.4	-0.0000116
3874.5	-0.0000099
3872.6	-0.0000079
3870.6	-0.0000046
3868.7	-0.0000014
3866.8	0.0000040
3864.8	0.0000096
3862.9	0.0000140
3861.0	0.0000171
3859.1	0.0000106
3857.1	0.0000014
3855.2	0.0000074
3853.3	0.0000131
3851.3	0.0000024
3849.4	-0.0000057
3847.5	-0.0000050
3845.6	-0.0000053
3843.6	-0.0000071
3841.7	-0.0000023
3839.8	0.0000107
3837.8	0.0000153
3835.9	0.0000105
3834.0	0.0000118
3832.1	0.0000142
3830.1	0.0000077
3828.2	-0.0000019
3826.3	-0.0000060
3824.3	-0.0000004
3822.4	0.0000122
3820.5	0.0000246
3818.6	0.0000372
3816.6	0.0000471
3814.7	0.0000371
3812.8	0.0000168
3810.8	0.0000086
3808.9	0.0000079
3807.0	0.0000044
3805.1	0.0000016
3803.1	0.0000084
3801.2	0.0000201
3799.3	0.0000190
3797.3	0.0000039
3795.4	-0.0000065
3793.5	-0.0000062
3791.6	-0.0000070
3789.6	-0.0000108
3787.7	-0.0000076
3785.8	0.0000032
3783.8	0.0000079
3781.9	0.0000024
3780.0	-0.0000023
3778.1	-0.0000027
3776.1	-0.0000006
3774.2	0.0000049
3772.3	0.0000063
3770.3	-0.0000010
3768.4	-0.0000021
3766.5	0.0000100
3764.6	0.0000165
3762.6	0.0000085
3760.7	-0.0000016
3758.8	-0.0000039
3756.8	0.0000023
3754.9	0.0000172
3753.0	0.0000382
3751.1	0.0000477
3749.1	0.0000362
3747.2	0.0000179
3745.3	0.0000082
3743.3	0.0000102
3741.4	0.0000228
3739.5	0.0000419
3737.6	0.0000523
3735.6	0.0000478
3733.7	0.0000386
3731.8	0.0000241
3729.8	0.0000069
3727.9	0.0000047
3726.0	0.0000127
3724.1	0.0000130
3722.1	0.0000110
3720.2	0.0000109
3718.3	0.0000048
3716.3	-0.0000030
3714.4	-0.0000062
3712.5	-0.0000031
3710.6	0.0000044
3708.6	0.0000059
3706.7	-0.0000001
3704.8	-0.0000066
3702.8	-0.0000140
3700.9	-0.0000237
3699.0	-0.0000260
3697.1	-0.0000184
3695.1	-0.0000098
3693.2	-0.0000045
3691.3	0.0000024
3689.3	0.0000134
3687.4	0.0000149
3685.5	0.0000008
3683.6	-0.0000113
3681.6	-0.0000101
3679.7	0.0000054
3677.8	0.0000255
3675.8	0.0000334
3673.9	0.0000285
3672.0	0.0000263
3670.1	0.0000310
3668.1	0.0000316
3666.2	0.0000262
3664.3	0.0000193
3662.3	0.0000134
3660.4	0.0000109
3658.5	0.0000097
3656.6	0.0000076
3654.6	0.0000050
3652.7	0.0000022
3650.8	0.0000016
3648.8	0.0000057
3646.9	0.0000093
3645.0	0.0000073
3643.1	-0.0000005
3641.1	-0.0000105
3639.2	-0.0000107
3637.3	-0.0000015
3635.3	0.0000057
3633.4	0.0000086
3631.5	0.0000083
3629.6	0.0000086
3627.6	0.0000102
3625.7	0.0000055
3623.8	-0.0000019
3621.8	0.0000028
3619.9	0.0000178
3618.0	0.0000243
3616.1	0.0000223
3614.1	0.0000245
3612.2	0.0000237
3610.3	0.0000161
3608.3	0.0000105
3606.4	0.0000110
3604.5	0.0000133
3602.6	0.0000105
3600.6	0.0000074
3598.7	0.0000130
3596.8	0.0000191
3594.8	0.0000138
3592.9	0.0000016
3591.0	-0.0000030
3589.1	0.0000011
3587.1	0.0000018
3585.2	-0.0000034
3583.3	-0.0000041
3581.3	0.0000005
3579.4	0.0000008
3577.5	-0.0000053
3575.6	-0.0000142
3573.6	-0.0000213
3571.7	-0.0000207
3569.8	-0.0000120
3567.8	-0.0000056
3565.9	-0.0000078
3564.0	-0.0000112
3562.1	-0.0000093
3560.1	-0.0000038
3558.2	-0.0000011
3556.3	-0.0000030
3554.3	-0.0000004
3552.4	0.0000034
3550.5	0.0000006
3548.6	0.0000050
3546.6	0.0000158
3544.7	0.0000137
3542.8	0.0000066
3540.8	0.0000055
3538.9	0.0000058
3537.0	0.0000080
3535.1	0.0000106
3533.1	0.0000100
3531.2	0.0000119
3529.3	0.0000098
3527.3	-0.0000021
3525.4	-0.0000062
3523.5	0.0000034
3521.6	0.0000083
3519.6	0.0000005
3517.7	-0.0000089
3515.8	-0.0000093
3513.8	-0.0000058
3511.9	-0.0000072
3510.0	-0.0000160
3508.1	-0.0000332
3506.1	-0.0000481
3504.2	-0.0000454
3502.3	-0.0000303
3500.3	-0.0000238
3498.4	-0.0000269
3496.5	-0.0000229
3494.6	-0.0000181
3492.6	-0.0000249
3490.7	-0.0000332
3488.8	-0.0000322
3486.8	-0.0000272
3484.9	-0.0000267
3483.0	-0.0000306
3481.1	-0.0000301
3479.1	-0.0000199
3477.2	-0.0000120
3475.3	-0.0000180
3473.3	-0.0000271
3471.4	-0.0000285
3469.5	-0.0000305
3467.6	-0.0000401
3465.6	-0.0000468
3463.7	-0.0000473
3461.8	-0.0000522
3459.8	-0.0000555
3457.9	-0.0000437
3456.0	-0.0000295
3454.1	-0.0000315
3452.1	-0.0000422
3450.2	-0.0000448
3448.3	-0.0000413
3446.3	-0.0000359
3444.4	-0.0000277
3442.5	-0.0000206
3440.6	-0.0000192
3438.6	-0.0000203
3436.7	-0.0000240
3434.8	-0.0000318
3432.8	-0.0000334
3430.9	-0.0000262
3429.0	-0.0000229
3427.1	-0.0000254
3425.1	-0.0000169
3423.2	0.0000040
3421.3	0.0000169
3419.3	0.0000138
3417.4	0.0000056
3415.5	0.0000043
3413.6	0.0000071
3411.6	0.0000065
3409.7	0.0000093
3407.8	0.0000186
3405.8	0.0000265
3403.9	0.0000320
3402.0	0.0000345
3400.1	0.0000252
3398.1	0.0000110
3396.2	0.0000037
3394.3	0.0000009
3392.3	-0.0000034
3390.4	-0.0000110
3388.5	-0.0000162
3386.6	-0.0000189
3384.6	-0.0000235
3382.7	-0.0000192
3380.8	-0.0000085
3378.8	-0.0000068
3376.9	-0.0000107
3375.0	-0.0000105
3373.1	-0.0000060
3371.1	-0.0000006
3369.2	0.0000001
3367.3	-0.0000045
3365.3	-0.0000105
3363.4	-0.0000180
3361.5	-0.0000284
3359.6	-0.0000354
3357.6	-0.0000321
3355.7	-0.0000178
3353.8	-0.0000033
3351.8	-0.0000051
3349.9	-0.0000209
3348.0	-0.0000291
3346.1	-0.0000228
3344.1	-0.0000168
3342.2	-0.0000145
3340.3	-0.0000114
3338.3	-0.0000062
3336.4	0.0000013
3334.5	0.0000023
3332.6	-0.0000077
3330.6	-0.0000217
3328.7	-0.0000341
3326.8	-0.0000393
3324.8	-0.0000359
3322.9	-0.0000329
3321.0	-0.0000363
3319.1	-0.0000386
3317.1	-0.0000363
3315.2	-0.0000362
3313.3	-0.0000343
3311.3	-0.0000265
3309.4	-0.0000217
3307.5	-0.0000201
3305.6	-0.0000192
3303.6	-0.0000243
3301.7	-0.0000261
3299.8	-0.0000155
3297.8	-0.0000102
3295.9	-0.0000190
3294.0	-0.0000279
3292.1	-0.0000295
3290.1	-0.0000281
3288.2	-0.0000276
3286.3	-0.0000286
3284.3	-0.0000304
3282.4	-0.0000309
3280.5	-0.0000279
3278.6	-0.0000214
3276.6	-0.0000135
3274.7	-0.0000113
3272.8	-0.0000170
3270.8	-0.0000221
3268.9	-0.0000192
3267.0	-0.0000148
3265.1	-0.0000159
3263.1	-0.0000188
3261.2	-0.0000197
3259.3	-0.0000190
3257.3	-0.0000192
3255.4	-0.0000228
3253.5	-0.0000305
3251.6	-0.0000393
3249.6	-0.0000422
3247.7	-0.0000390
3245.8	-0.0000406
3243.8	-0.0000488
3241.9	-0.0000534
3240.0	-0.0000542
3238.1	-0.0000566
3236.1	-0.0000568
3234.2	-0.0000549
3232.3	-0.0000557
3230.3	-0.0000607
3228.4	-0.0000679
3226.5	-0.0000762
3224.6	-0.0000866
3222.6	-0.0000953
3220.7	-0.0000955
3218.8	-0.0000914
3216.8	-0.0000879
3214.9	-0.0000880
3213.0	-0.0000944
3211.1	-0.0001022
3209.1	-0.0001099
3207.2	-0.0001261
3205.3	-0.0001445
3203.3	-0.0001477
3201.4	-0.0001403
3199.5	-0.0001400
3197.6	-0.0001470
3195.6	-0.0001543
3193.7	-0.0001581
3191.8	-0.0001560
3189.8	-0.0001546
3187.9	-0.0001649
3186.0	-0.0001809
3184.1	-0.0001861
3182.1	-0.0001827
3180.2	-0.0001888
3178.3	-0.0002071
3176.3	-0.0002182
3174.4	-0.0002179
3172.5	-0.0002207
3170.6	-0.0002260
3168.6	-0.0002261
3166.7	-0.0002231
3164.8	-0.0002189
3162.8	-0.0002133
3160.9	-0.0002099
3159.0	-0.0002127
3157.1	-0.0002213
3155.1	-0.0002375
3153.2	-0.0002593
3151.3	-0.0002768
3149.3	-0.0002916
3147.4	-0.0003075
3145.5	-0.0003151
3143.6	-0.0003135
3141.6	-0.0003110
3139.7	-0.0003118
3137.8	-0.0003203
3135.8	-0.0003343
3133.9	-0.0003449
3132.0	-0.0003527
3130.1	-0.0003570
3128.1	-0.0003537
3126.2	-0.0003496
3124.3	-0.0003577
3122.3	-0.0003783
3120.4	-0.0004008
3118.5	-0.0004182
3116.6	-0.0004285
3114.6	-0.0004333
3112.7	-0.0004391
3110.8	-0.0004480
3108.8	-0.0004594
3106.9	-0.0004723
3105.0	-0.0004804
3103.1	-0.0004793
3101.1	-0.0004751
3099.2	-0.0004781
3097.3	-0.0004883
3095.3	-0.0004932
3093.4	-0.0004909
3091.5	-0.0004920
3089.6	-0.0004970
3087.6	-0.0005039
3085.7	-0.0005132
3083.8	-0.0005162
3081.8	-0.0005091
3079.9	-0.0005037
3078.0	-0.0005057
3076.1	-0.0005069
3074.1	-0.0005065
3072.2	-0.0005109
3070.3	-0.0005222
3068.3	-0.0005362
3066.4	-0.0005415
3064.5	-0.0005349
3062.6	-0.0005278
3060.6	-0.0005301
3058.7	-0.0005420
3056.8	-0.0005527
3054.8	-0.0005589
3052.9	-0.0005678
3051.0	-0.0005797
3049.1	-0.0005907
3047.1	-0.0005999
3045.2	-0.0006086
3043.3	-0.0006198
3041.3	-0.0006352
3039.4	-0.0006500
3037.5	-0.0006607
3035.6	-0.0006701
3033.6	-0.0006800
3031.7	-0.0006877
3029.8	-0.0006865
3027.8	-0.0006753
3025.9	-0.0006656
3024.0	-0.0006609
3022.1	-0.0006557
3020.1	-0.0006570
3018.2	-0.0006670
3016.3	-0.0006694
3014.3	-0.0006551
3012.4	-0.0006384
3010.5	-0.0006314
3008.6	-0.0006309
3006.6	-0.0006359
3004.7	-0.0006435
3002.8	-0.0006517
3000.8	-0.0006627
2998.9	-0.0006714
2997.0	-0.0006760
2995.1	-0.0006817
2993.1	-0.0006879
2991.2	-0.0006916
2989.3	-0.0006926
2987.3	-0.0006872
2985.4	-0.0006750
2983.5	-0.0006663
2981.6	-0.0006606
2979.6	-0.0006461
2977.7	-0.0006246
2975.8	-0.0006016
2973.8	-0.0005747
2971.9	-0.0005482
2970.0	-0.0005295
2968.1	-0.0005183
2966.1	-0.0005134
2964.2	-0.0005137
2962.3	-0.0005142
2960.3	-0.0005183
2958.4	-0.0005258
2956.5	-0.0005289
2954.6	-0.0005315
2952.6	-0.0005395
2950.7	-0.0005527
2948.8	-0.0005726
2946.8	-0.0005937
2944.9	-0.0006106
2943.0	-0.0006216
2941.1	-0.0006270
2939.1	-0.0006313
2937.2	-0.0006395
2935.3	-0.0006506
2933.3	-0.0006614
2931.4	-0.0006715
2929.5	-0.0006785
2927.6	-0.0006740
2925.6	-0.0006563
2923.7	-0.0006378
2921.8	-0.0006260
2919.8	-0.0006153
2917.9	-0.0006008
2916.0	-0.0005844
2914.1	-0.0005693
2912.1	-0.0005545
2910.2	-0.0005392
2908.3	-0.0005292
2906.3	-0.0005188
2904.4	-0.0004960
2902.5	-0.0004739
2900.6	-0.0004647
2898.6	-0.0004543
2896.7	-0.0004364
2894.8	-0.0004248
2892.8	-0.0004224
2890.9	-0.0004194
2889.0	-0.0004138
2887.1	-0.0004075
2885.1	-0.0003998
2883.2	-0.0003914
2881.3	-0.0003832
2879.3	-0.0003740
2877.4	-0.0003634
2875.5	-0.0003559
2873.6	-0.0003542
2871.6	-0.0003547
2869.7	-0.0003525
2867.8	-0.0003489
2865.8	-0.0003514
2863.9	-0.0003602
2862.0	-0.0003629
2860.1	-0.0003571
2858.1	-0.0003534
2856.2	-0.0003556
2854.3	-0.0003593
2852.3	-0.0003574
2850.4	-0.0003479
2848.5	-0.0003379
2846.6	-0.0003302
2844.6	-0.0003226
2842.7	-0.0003184
2840.8	-0.0003181
2838.8	-0.0003161
2836.9	-0.0003123
2835.0	-0.0003061
2833.1	-0.0002945
2831.1	-0.0002861
2829.2	-0.0002859
2827.3	-0.0002850
2825.3	-0.0002785
2823.4	-0.0002740
2821.5	-0.0002782
2819.6	-0.0002841
2817.6	-0.0002847
2815.7	-0.0002836
2813.8	-0.0002849
2811.8	-0.0002893
2809.9	-0.0002948
2808.0	-0.0002992
2806.1	-0.0003008
2804.1	-0.0002999
2802.2	-0.0002988
2800.3	-0.0002984
2798.3	-0.0002963
2796.4	-0.0002899
2794.5	-0.0002791
2792.6	-0.0002692
2790.6	-0.0002661
2788.7	-0.0002691
2786.8	-0.0002720
2784.8	-0.0002669
2782.9	-0.0002527
2781.0	-0.0002385
2779.1	-0.0002305
2777.1	-0.0002235
2775.2	-0.0002132
2773.3	-0.0002063
2771.3	-0.0002034
2769.4	-0.0001977
2767.5	-0.0001932
2765.6	-0.0001932
2763.6	-0.0001932
2761.7	-0.0001930
2759.8	-0.0001931
2757.8	-0.0001940
2755.9	-0.0001983
2754.0	-0.0002062
2752.1	-0.0002165
2750.1	-0.0002251
2748.2	-0.0002304
2746.3	-0.0002341
2744.3	-0.0002354
2742.4	-0.0002341
2740.5	-0.0002294
2738.6	-0.0002248
2736.6	-0.0002239
2734.7	-0.0002235
2732.8	-0.0002259
2730.8	-0.0002301
2728.9	-0.0002284
2727.0	-0.0002196
2725.1	-0.0002098
2723.1	-0.0002071
2721.2	-0.0002106
2719.3	-0.0002137
2717.3	-0.0002158
2715.4	-0.0002218
2713.5	-0.0002335
2711.6	-0.0002448
2709.6	-0.0002539
2707.7	-0.0002622
2705.8	-0.0002634
2703.8	-0.0002564
2701.9	-0.0002523
2700.0	-0.0002573
2698.1	-0.0002664
2696.1	-0.0002735
2694.2	-0.0002766
2692.3	-0.0002753
2690.3	-0.0002694
2688.4	-0.0002598
2686.5	-0.0002507
2684.6	-0.0002427
2682.6	-0.0002352
2680.7	-0.0002293
2678.8	-0.0002217
2676.8	-0.0002088
2674.9	-0.0001944
2673.0	-0.0001858
2671.1	-0.0001819
2669.1	-0.0001761
2667.2	-0.0001683
2665.3	-0.0001605
2663.3	-0.0001526
2661.4	-0.0001484
2659.5	-0.0001515
2657.6	-0.0001567
2655.6	-0.0001598
2653.7	-0.0001649
2651.8	-0.0001760
2649.8	-0.0001923
2647.9	-0.0002126
2646.0	-0.0002376
2644.1	-0.0002588
2642.1	-0.0002689
2640.2	-0.0002722
2638.3	-0.0002722
2636.3	-0.0002631
2634.4	-0.0002386
2632.5	-0.0002087
2630.6	-0.0001862
2628.6	-0.0001666
2626.7	-0.0001429
2624.8	-0.0001221
2622.8	-0.0001139
2620.9	-0.0001139
2619.0	-0.0001090
2617.1	-0.0001006
2615.1	-0.0000986
2613.2	-0.0001004
2611.3	-0.0000983
2609.3	-0.0000893
2607.4	-0.0000781
2605.5	-0.0000730
2603.6	-0.0000736
2601.6	-0.0000740
2599.7	-0.0000755
2597.8	-0.0000807
2595.8	-0.0000861
2593.9	-0.0000906
2592.0	-0.0000975
2590.1	-0.0001082
2588.1	-0.0001188
2586.2	-0.0001286
2584.3	-0.0001428
2582.3	-0.0001609
2580.4	-0.0001732
2578.5	-0.0001754
2576.6	-0.0001712
2574.6	-0.0001637
2572.7	-0.0001559
2570.8	-0.0001525
2568.8	-0.0001493
2566.9	-0.0001368
2565.0	-0.0001226
2563.1	-0.0001136
2561.1	-0.0000998
2559.2	-0.0000844
2557.3	-0.0000791
2555.3	-0.0000776
2553.4	-0.0000729
2551.5	-0.0000718
2549.6	-0.0000747
2547.6	-0.0000710
2545.7	-0.0000583
2543.8	-0.0000476
2541.8	-0.0000472
2539.9	-0.0000523
2538.0	-0.0000526
2536.1	-0.0000481
2534.1	-0.0000439
2532.2	-0.0000383
2530.3	-0.0000298
2528.3	-0.0000220
2526.4	-0.0000204
2524.5	-0.0000255
2522.6	-0.0000296
2520.6	-0.0000301
2518.7	-0.0000298
2516.8	-0.0000242
2514.8	-0.0000160
2512.9	-0.0000159
2511.0	-0.0000186
2509.1	-0.0000150
2507.1	-0.0000116
2505.2	-0.0000124
2503.3	-0.0000116
2501.3	-0.0000076
2499.4	-0.0000039
2497.5	-0.0000058
2495.6	-0.0000141
2493.6	-0.0000170
2491.7	-0.0000054
2489.8	0.0000113
2487.8	0.0000207
2485.9	0.0000215
2484.0	0.0000181
2482.1	0.0000121
2480.1	0.0000044
2478.2	-0.0000014
2476.3	-0.0000007
2474.3	0.0000065
2472.4	0.0000117
2470.5	0.0000078
2468.6	-0.0000006
2466.6	-0.0000024
2464.7	0.0000066
2462.8	0.0000174
2460.8	0.0000225
2458.9	0.0000226
2457.0	0.0000179
2455.1	0.0000108
2453.1	0.0000062
2451.2	0.0000040
2449.3	0.0000029
2447.3	0.0000071
2445.4	0.0000162
2443.5	0.0000216
2441.6	0.0000217
2439.6	0.0000220
2437.7	0.0000218
2435.8	0.0000167
2433.8	0.0000099
2431.9	0.0000065
2430.0	0.0000061
2428.1	0.0000100
2426.1	0.0000187
2424.2	0.0000233
2422.3	0.0000210
2420.3	0.0000178
2418.4	0.0000176
2416.5	0.0000181
2414.6	0.0000177
2412.6	0.0000176
2410.7	0.0000188
2408.8	0.0000182
2406.8	0.0000131
2404.9	0.0000099
2403.0	0.0000149
2401.1	0.0000212
2399.1	0.0000218
2397.2	0.0000180
2395.3	0.0000132
2393.3	0.0000121
2391.4	0.0000195
2389.5	0.0000277
2387.6	0.0000276
2385.6	0.0000247
2383.7	0.0000232
2381.8	0.0000157
2379.8	0.0000046
2377.9	-0.0000011
2376.0	-0.0000086
2374.1	-0.0000278
2372.1	-0.0000506
2370.2	-0.0000657
2368.3	-0.0000774
2366.3	-0.0000926
2364.4	-0.0001060
2362.5	-0.0001101
2360.6	-0.0001086
2358.6	-0.0001073
2356.7	-0.0000995
2354.8	-0.0000779
2352.8	-0.0000508
2350.9	-0.0000320
2349.0	-0.0000280
2347.1	-0.0000396
2345.1	-0.0000623
2343.2	-0.0000822
2341.3	-0.0000881
2339.3	-0.0000876
2337.4	-0.0000865
2335.5	-0.0000803
2333.6	-0.0000712
2331.6	-0.0000624
2329.7	-0.0000520
2327.8	-0.0000449
2325.8	-0.0000478
2323.9	-0.0000517
2322.0	-0.0000448
2320.1	-0.0000334
2318.1	-0.0000263
2316.2	-0.0000205
2314.3	-0.0000136
2312.3	-0.0000112
2310.4	-0.0000160
2308.5	-0.0000179
2306.6	-0.0000120
2304.6	-0.0000090
2302.7	-0.0000116
2300.8	-0.0000106
2298.8	-0.0000039
2296.9	0.0000023
2295.0	0.0000026
2293.1	0.0000006
2291.1	0.0000020
2289.2	0.0000030
2287.3	0.0000019
2285.3	0.0000025
2283.4	0.0000025
2281.5	-0.0000024
2279.6	-0.0000045
2277.6	0.0000036
2275.7	0.0000158
2273.8	0.0000258
2271.8	0.0000364
2269.9	0.0000498
2268.0	0.0000654
2266.1	0.0000866
2264.1	0.0001204
2262.2	0.0001644
2260.3	0.0001947
2258.3	0.0001902
2256.4	0.0001632
2254.5	0.0001380
2252.6	0.0001165
2250.6	0.0000918
2248.7	0.0000728
2246.8	0.0000642
2244.8	0.0000561
2242.9	0.0000453
2241.0	0.0000337
2239.1	0.0000222
2237.1	0.0000151
2235.2	0.0000133
2233.3	0.0000127
2231.3	0.0000108
2229.4	0.0000058
2227.5	0.0000032
2225.6	0.0000062
2223.6	0.0000102
2221.7	0.0000137
2219.8	0.0000164
2217.8	0.0000149
2215.9	0.0000161
2214.0	0.0000254
2212.1	0.0000328
2210.1	0.0000307
2208.2	0.0000258
2206.3	0.0000239
2204.3	0.0000207
2202.4	0.0000129
2200.5	0.0000036
2198.6	-0.0000047
2196.6	-0.0000120
2194.7	-0.0000166
2192.8	-0.0000159
2190.8	-0.0000134
2188.9	-0.0000169
2187.0	-0.0000252
2185.1	-0.0000308
2183.1	-0.0000290
2181.2	-0.0000225
2179.3	-0.0000205
2177.3	-0.0000215
2175.4	-0.0000157
2173.5	-0.0000046
2171.6	-0.0000003
2169.6	-0.0000044
2167.7	-0.0000098
2165.8	-0.0000103
2163.8	-0.0000030
2161.9	0.0000055
2160.0	0.0000041
2158.1	-0.0000020
2156.1	-0.0000040
2154.2	-0.0000059
2152.3	-0.0000130
2150.3	-0.0000186
2148.4	-0.0000199
2146.5	-0.0000173
2144.6	-0.0000084
2142.6	0.0000010
2140.7	0.0000056
2138.8	0.0000093
2136.8	0.0000117
2134.9	0.0000095
2133.0	0.0000055
2131.1	0.0000027
2129.1	0.0000010
2127.2	0.0000033
2125.3	0.0000093
2123.3	0.0000125
2121.4	0.0000136
2119.5	0.0000161
2117.6	0.0000158
2115.6	0.0000093
2113.7	0.0000021
2111.8	0.0000019
2109.8	0.0000076
2107.9	0.0000113
2106.0	0.0000116
2104.1	0.0000122
2102.1	0.0000130
2100.2	0.0000147
2098.3	0.0000174
2096.3	0.0000178
2094.4	0.0000153
2092.5	0.0000139
2090.6	0.0000127
2088.6	0.0000107
2086.7	0.0000103
2084.8	0.0000108
2082.8	0.0000104
2080.9	0.0000110
2079.0	0.0000153
2077.1	0.0000195
2075.1	0.0000194
2073.2	0.0000186
2071.3	0.0000215
2069.3	0.0000272
2067.4	0.0000343
2065.5	0.0000411
2063.6	0.0000427
2061.6	0.0000358
2059.7	0.0000266
2057.8	0.0000238
2055.8	0.0000267
2053.9	0.0000319
2052.0	0.0000349
2050.1	0.0000320
2048.1	0.0000259
2046.2	0.0000246
2044.3	0.0000266
2042.3	0.0000247
2040.4	0.0000192
2038.5	0.0000152
2036.6	0.0000135
2034.6	0.0000142
2032.7	0.0000153
2030.8	0.0000164
2028.8	0.0000198
2026.9	0.0000203
2025.0	0.0000158
2023.1	0.0000122
2021.1	0.0000059
2019.2	-0.0000028
2017.3	-0.0000016
2015.3	0.0000090
2013.4	0.0000217
2011.5	0.0000325
2009.6	0.0000348
2007.6	0.0000293
2005.7	0.0000232
2003.8	0.0000174
2001.8	0.0000134
1999.9	0.0000131
1998.0	0.0000135
1996.1	0.0000100
1994.1	0.0000044
1992.2	0.0000033
1990.3	0.0000071
1988.3	0.0000108
1986.4	0.0000157
1984.5	0.0000198
1982.6	0.0000180
1980.6	0.0000132
1978.7	0.0000087
1976.8	0.0000045
1974.8	0.0000031
1972.9	0.0000049
1971.0	0.0000083
1969.1	0.0000125
1967.1	0.0000120
1965.2	0.0000064
1963.3	0.0000037
1961.4	0.0000076
1959.4	0.0000142
1957.5	0.0000154
1955.6	0.0000121
1953.6	0.0000131
1951.7	0.0000169
1949.8	0.0000181
1947.9	0.0000174
1945.9	0.0000148
1944.0	0.0000080
1942.1	0.0000038
1940.1	0.0000105
1938.2	0.0000184
1936.3	0.0000165
1934.4	0.0000121
1932.4	0.0000138
1930.5	0.0000169
1928.6	0.0000154
1926.6	0.0000123
1924.7	0.0000133
1922.8	0.0000157
1920.9	0.0000144
1918.9	0.0000076
1917.0	-0.0000017
1915.1	-0.0000037
1913.1	0.0000068
1911.2	0.0000181
1909.3	0.0000175
1907.4	0.0000098
1905.4	0.0000022
1903.5	-0.0000030
1901.6	-0.0000011
1899.6	0.0000055
1897.7	0.0000105
1895.8	0.0000137
1893.9	0.0000170
1891.9	0.0000173
1890.0	0.0000143
1888.1	0.0000126
1886.1	0.0000147
1884.2	0.0000161
1882.3	0.0000147
1880.4	0.0000133
1878.4	0.0000121
1876.5	0.0000115
1874.6	0.0000114
1872.6	0.0000093
1870.7	0.0000068
1868.8	0.0000060
1866.9	0.0000024
1864.9	-0.0000076
1863.0	-0.0000187
1861.1	-0.0000252
1859.1	-0.0000295
1857.2	-0.0000349
1855.3	-0.0000410
1853.4	-0.0000490
1851.4	-0.0000577
1849.5	-0.0000629
1847.6	-0.0000666
1845.6	-0.0000718
1843.7	-0.0000758
1841.8	-0.0000804
1839.9	-0.0000891
1837.9	-0.0000967
1836.0	-0.0001022
1834.1	-0.0001107
1832.1	-0.0001207
1830.2	-0.0001323
1828.3	-0.0001465
1826.4	-0.0001594
1824.4	-0.0001710
1822.5	-0.0001830
1820.6	-0.0001918
1818.6	-0.0001976
1816.7	-0.0002032
1814.8	-0.0002092
1812.9	-0.0002129
1810.9	-0.0002155
1809.0	-0.0002215
1807.1	-0.0002282
1805.1	-0.0002319
1803.2	-0.0002393
1801.3	-0.0002538
1799.4	-0.0002727
1797.4	-0.0002933
1795.5	-0.0003122
1793.6	-0.0003231
1791.6	-0.0003258
1789.7	-0.0003222
1787.8	-0.0003087
1785.9	-0.0002830
1783.9	-0.0002513
1782.0	-0.0002212
1780.1	-0.0002001
1778.1	-0.0001936
1776.2	-0.0001936
1774.3	-0.0001868
1772.4	-0.0001812
1770.4	-0.0001946
1768.5	-0.0002236
1766.6	-0.0002543
1764.6	-0.0002808
1762.7	-0.0003087
1760.8	-0.0003500
1758.9	-0.0003955
1756.9	-0.0004214
1755.0	-0.0004223
1753.1	-0.0004114
1751.1	-0.0004052
1749.2	-0.0004116
1747.3	-0.0004296
1745.4	-0.0004663
1743.4	-0.0005458
1741.5	-0.0007154
1739.6	-0.0010491
1737.6	-0.0015905
1735.7	-0.0022758
1733.8	-0.0029322
1731.9	-0.0033689
1729.9	-0.0035199
1728.0	-0.0034447
1726.1	-0.0032384
1724.1	-0.0029826
1722.2	-0.0027266
1720.3	-0.0024848
1718.4	-0.0022548
1716.4	-0.0020393
1714.5	-0.0018370
1712.6	-0.0016415
1710.6	-0.0014588
1708.7	-0.0013011
1706.8	-0.0011738
1704.9	-0.0010754
1702.9	-0.0009996
1701.0	-0.0009435
1699.1	-0.0009062
1697.1	-0.0008785
1695.2	-0.0008595
1693.3	-0.0008539
1691.4	-0.0008487
1689.4	-0.0008368
1687.5	-0.0008199
1685.6	-0.0007982
1683.6	-0.0007881
1681.7	-0.0007961
1679.8	-0.0008026
1677.9	-0.0007978
1675.9	-0.0007862
1674.0	-0.0007708
1672.1	-0.0007510
1670.1	-0.0007320
1668.2	-0.0007220
1666.3	-0.0007103
1664.4	-0.0006850
1662.4	-0.0006553
1660.5	-0.0006316
1658.6	-0.0006121
1656.6	-0.0005886
1654.7	-0.0005536
1652.8	-0.0005203
1650.9	-0.0005075
1648.9	-0.0005022
1647.0	-0.0004926
1645.1	-0.0004887
1643.1	-0.0004858
1641.2	-0.0004725
1639.3	-0.0004569
1637.4	-0.0004459
1635.4	-0.0004379
1633.5	-0.0004359
1631.6	-0.0004389
1629.6	-0.0004385
1627.7	-0.0004339
1625.8	-0.0004329
1623.9	-0.0004341
1621.9	-0.0004301
1620.0	-0.0004173
1618.1	-0.0003990
1616.1	-0.0003914
1614.2	-0.0003992
1612.3	-0.0004014
1610.4	-0.0003912
1608.4	-0.0003817
1606.5	-0.0003780
1604.6	-0.0003734
1602.6	-0.0003661
1600.7	-0.0003569
1598.8	-0.0003419
1596.9	-0.0003183
1594.9	-0.0002915
1593.0	-0.0002704
1591.1	-0.0002564
1589.1	-0.0002425
1587.2	-0.0002240
1585.3	-0.0001990
1583.4	-0.0001708
1581.4	-0.0001474
1579.5	-0.0001298
1577.6	-0.0001127
1575.6	-0.0000984
1573.7	-0.0000907
1571.8	-0.0000860
1569.9	-0.0000813
1567.9	-0.0000767
1566.0	-0.0000716
1564.1	-0.0000661
1562.1	-0.0000587
1560.2	-0.0000521
1558.3	-0.0000559
1556.4	-0.0000682
1554.4	-0.0000754
1552.5	-0.0000761
1550.6	-0.0000791
1548.6	-0.0000832
1546.7	-0.0000802
1544.8	-0.0000741
1542.9	-0.0000720
1540.9	-0.0000714
1539.0	-0.0000749
1537.1	-0.0000838
1535.1	-0.0000891
1533.2	-0.0000927
1531.3	-0.0000993
1529.4	-0.0001016
1527.4	-0.0000939
1525.5	-0.0000838
1523.6	-0.0000809
1521.6	-0.0000827
1519.7	-0.0000829
1517.8	-0.0000731
1515.9	-0.0000494
1513.9	-0.0000231
1512.0	-0.0000041
1510.1	0.0000092
1508.1	0.0000189
1506.2	0.0000184
1504.3	0.0000084
1502.4	-0.0000006
1500.4	-0.0000030
1498.5	0.0000012
1496.6	0.0000011
1494.6	-0.0000092
1492.7	-0.0000157
1490.8	-0.0000157
1488.9	-0.0000209
1486.9	-0.0000333
1485.0	-0.0000471
1483.1	-0.0000570
1481.1	-0.0000633
1479.2	-0.0000701
1477.3	-0.0000786
1475.4	-0.0000877
1473.4	-0.0001009
1471.5	-0.0001239
1469.6	-0.0001563
1467.6	-0.0001934
1465.7	-0.0002312
1463.8	-0.0002753
1461.9	-0.0003320
1459.9	-0.0003901
1458.0	-0.0004432
1456.1	-0.0005060
1454.1	-0.0005769
1452.2	-0.0006395
1450.3	-0.0006951
1448.4	-0.0007484
1446.4	-0.0007975
1444.5	-0.0008419
1442.6	-0.0008830
1440.6	-0.0009208
1438.7	-0.0009486
1436.8	-0.0009590
1434.9	-0.0009558
1432.9	-0.0009429
1431.0	-0.0009208
1429.1	-0.0009048
1427.1	-0.0009124
1425.2	-0.0009398
1423.3	-0.0009733
1421.4	-0.0010016
1419.4	-0.0010175
1417.5	-0.0010194
1415.6	-0.0010022
1413.6	-0.0009634
1411.7	-0.0009176
1409.8	-0.0008707
1407.9	-0.0008160
1405.9	-0.0007621
1404.0	-0.0007170
1402.1	-0.0006700
1400.1	-0.0006127
1398.2	-0.0005520
1396.3	-0.0004959
1394.4	-0.0004455
1392.4	-0.0003995
1390.5	-0.0003567
1388.6	-0.0003213
1386.6	-0.0002977
1384.7	-0.0002800
1382.8	-0.0002617
1380.9	-0.0002456
1378.9	-0.0002349
1377.0	-0.0002356
1375.1	-0.0002536
1373.1	-0.0002843
1371.2	-0.0003193
1369.3	-0.0003514
1367.4	-0.0003746
1365.4	-0.0003847
1363.5	-0.0003768
1361.6	-0.0003487
1359.6	-0.0003016
1357.7	-0.0002414
1355.8	-0.0001798
1353.9	-0.0001252
1351.9	-0.0000785
1350.0	-0.0000427
1348.1	-0.0000205
1346.1	-0.0000085
1344.2	-0.0000034
1342.3	-0.0000007
1340.4	0.0000044
1338.4	0.0000071
1336.5	0.0000002
1334.6	-0.0000141
1332.6	-0.0000328
1330.7	-0.0000511
1328.8	-0.0000725
1326.9	-0.0001074
1324.9	-0.0001622
1323.0	-0.0002435
1321.1	-0.0003706
1319.1	-0.0005823
1317.2	-0.0008999
1315.3	-0.0012526
1313.4	-0.0015054
1311.4	-0.0015944
1309.5	-0.0015627
1307.6	-0.0014678
1305.6	-0.0013276
1303.7	-0.0011489
1301.8	-0.0009493
1299.9	-0.0007509
1297.9	-0.0005815
1296.0	-0.0004567
1294.1	-0.0003557
1292.1	-0.0002582
1290.2	-0.0001957
1288.3	-0.0002157
1286.4	-0.0003047
1284.4	-0.0003940
1282.5	-0.0004338
1280.6	-0.0004279
1278.6	-0.0004011
1276.7	-0.0003753
1274.8	-0.0003634
1272.9	-0.0003567
1270.9	-0.0003439
1269.0	-0.0003252
1267.1	-0.0003056
1265.1	-0.0002907
1263.2	-0.0002759
1261.3	-0.0002498
1259.4	-0.0002136
1257.4	-0.0001821
1255.5	-0.0001624
1253.6	-0.0001484
1251.6	-0.0001382
1249.7	-0.0001367
1247.8	-0.0001421
1245.9	-0.0001432
1243.9	-0.0001376
1242.0	-0.0001307
1240.1	-0.0001262
1238.1	-0.0001239
1236.2	-0.0001180
1234.3	-0.0001059
1232.4	-0.0000900
1230.4	-0.0000729
1228.5	-0.0000623
1226.6	-0.0000596
1224.6	-0.0000575
1222.7	-0.0000522
1220.8	-0.0000446
1218.9	-0.0000313
1216.9	-0.0000185
1215.0	-0.0000033
1213.1	0.0000108
1211.1	0.0000129
1209.2	0.0000031
1207.3	-0.0000098
1205.4	-0.0000219
1203.4	-0.0000293
1201.5	-0.0000298
1199.6	-0.0000271
1197.6	-0.0000191
1195.7	-0.0000061
1193.8	-0.0000011
1191.9	-0.0000089
1189.9	-0.0000163
1188.0	-0.0000150
1186.1	-0.0000084
1184.1	-0.0000029
1182.2	0.0000034
1180.3	0.0000232
1178.4	0.0000490
1176.4	0.0000563
1174.5	0.0000469
1172.6	0.0000377
1170.6	0.0000306
1168.7	0.0000216
1166.8	0.0000138
1164.9	0.0000116
1162.9	0.0000144
1161.0	0.0000181
1159.1	0.0000221
1157.1	0.0000229
1155.2	0.0000176
1153.3	0.0000183
1151.4	0.0000333
1149.4	0.0000507
1147.5	0.0000566
1145.6	0.0000514
1143.6	0.0000450
1141.7	0.0000455
1139.8	0.0000447
1137.9	0.0000322
1135.9	0.0000154
1134.0	0.0000094
1132.1	0.0000133
1130.1	0.0000168
1128.2	0.0000178
1126.3	0.0000199
1124.4	0.0000231
1122.4	0.0000234
1120.5	0.0000189
1118.6	0.0000136
1116.6	0.0000152
1114.7	0.0000210
1112.8	0.0000267
1110.9	0.0000213
1108.9	0.0000098
1107.0	-0.0000005
1105.1	-0.0000098
1103.1	-0.0000190
1101.2	-0.0000294
1099.3	-0.0000405
1097.4	-0.0000439
1095.4	-0.0000470
1093.5	-0.0000622
1091.6	-0.0000749
1089.6	-0.0000783
1087.7	-0.0000864
1085.8	-0.0001065
1083.9	-0.0001364
1081.9	-0.0001649
1080.0	-0.0001854
1078.1	-0.0002054
1076.1	-0.0002237
1074.2	-0.0002330
1072.3	-0.0002434
1070.4	-0.0002648
1068.4	-0.0002895
1066.5	-0.0003104
1064.6	-0.0003357
1062.6	-0.0003812
1060.7	-0.0004512
1058.8	-0.0005285
1056.9	-0.0005833
1054.9	-0.0005861
1053.0	-0.0005278
1051.1	-0.0004228
1049.1	-0.0002809
1047.2	-0.0001372
1045.3	-0.0000235
1043.4	0.0000352
1041.4	0.0000430
1039.5	0.0000243
1037.6	-0.0000099
1035.6	-0.0000559
1033.7	-0.0001048
1031.8	-0.0001522
1029.9	-0.0001964
1027.9	-0.0002340
1026.0	-0.0002599
1024.1	-0.0002708
1022.1	-0.0002693
1020.2	-0.0002506
1018.3	-0.0002046
1016.4	-0.0001359
1014.4	-0.0000660
1012.5	-0.0000147
1010.6	0.0000141
1008.6	0.0000245
1006.7	0.0000239
1004.8	0.0000206
1002.9	0.0000176
1000.9	0.0000116
999.0	0.0000041
997.1	-0.0000006
995.1	-0.0000073
993.2	-0.0000152
991.3	-0.0000157
989.4	-0.0000274
987.4	-0.0000646
985.5	-0.0001127
983.6	-0.0001642
981.6	-0.0002232
979.7	-0.0002904
977.8	-0.0003637
975.9	-0.0004423
973.9	-0.0005186
972.0	-0.0005831
970.1	-0.0006363
968.1	-0.0006791
966.2	-0.0007090
964.3	-0.0007183
962.4	-0.0006993
960.4	-0.0006646
958.5	-0.0006311
956.6	-0.0005929
954.6	-0.0005412
952.7	-0.0004914
950.8	-0.0004623
948.9	-0.0004419
946.9	-0.0004125
945.0	-0.0003787
943.1	-0.0003376
941.1	-0.0002888
939.2	-0.0002453
937.3	-0.0002067
935.4	-0.0001690
933.4	-0.0001379
931.5	-0.0001140
929.6	-0.0000924
927.6	-0.0000804
925.7	-0.0000799
923.8	-0.0000728
921.9	-0.0000583
919.9	-0.0000371
918.0	-0.0000231
916.1	-0.0000294
914.1	-0.0000471
912.2	-0.0000623
910.3	-0.0000732
908.4	-0.0000796
906.4	-0.0000843
904.5	-0.0000888
902.6	-0.0000779
900.6	-0.0000538
898.7	-0.0000477
896.8	-0.0000572
894.9	-0.0000508
892.9	-0.0000295
891.0	-0.0000134
889.1	-0.0000074
887.1	-0.0000095
885.2	-0.0000245
883.3	-0.0000328
881.4	-0.0000206
879.4	-0.0000044
877.5	0.0000009
875.6	0.0000050
873.6	0.0000177
871.7	0.0000215
869.8	-0.0000082
867.9	-0.0000474
865.9	-0.0000432
864.0	-0.0000041
862.1	0.0000168
860.1	0.0000101
858.2	0.0000059
856.3	0.0000193
854.4	0.0000325
852.4	0.0000279
850.5	0.0000164
848.6	-0.0000038
846.6	-0.0000371
844.7	-0.0000608
842.8	-0.0000627
840.9	-0.0000657
838.9	-0.0000775
837.0	-0.0000730
835.1	-0.0000540
833.1	-0.0000485
831.2	-0.0000466
829.3	-0.0000314
827.4	-0.0000263
825.4	-0.0000472
823.5	-0.0000726
821.6	-0.0000858
819.6	-0.0000868
817.7	-0.0000711
815.8	-0.0000399
813.9	-0.0000252
811.9	-0.0000415
810.0	-0.0000584
808.1	-0.0000617
806.1	-0.0000587
804.2	-0.0000483
802.3	-0.0000414
800.4	-0.0000447
798.4	-0.0000479
796.5	-0.0000535
794.6	-0.0000754
792.6	-0.0001034
790.7	-0.0001125
788.8	-0.0001151
786.9	-0.0001351
784.9	-0.0001354
783.0	-0.0001133
781.1	-0.0001155
779.1	-0.0001483
777.2	-0.0001751
775.3	-0.0001826
773.4	-0.0001731
771.4	-0.0001586
769.5	-0.0001359
767.6	-0.0000817
765.6	-0.0000312
763.7	-0.0000290
761.8	-0.0000523
759.9	-0.0000712
757.9	-0.0001010
756.0	-0.0001396
754.1	-0.0001458
752.1	-0.0000892
750.2	-0.0000086
748.3	0.0000320
