3998.1	-1.4987444
3997.2	-1.4986501
3996.2	-1.4989213
3995.2	-1.4992208
3994.3	-1.4992434
3993.3	-1.4991884
3992.3	-1.4991552
3991.4	-1.4990749
3990.4	-1.4990178
3989.5	-1.4990253
3988.5	-1.4989947
3987.5	-1.4989119
3986.6	-1.4989589
3985.6	-1.4991136
3984.6	-1.4991585
3983.7	-1.4990851
3982.7	-1.4989340
3981.7	-1.4987640
3980.8	-1.4987410
3979.8	-1.4988652
3978.8	-1.4989935
3977.9	-1.4990498
3976.9	-1.4991020
3975.9	-1.4992400
3975.0	-1.4993132
3974.0	-1.4991826
3973.1	-1.4990331
3972.1	-1.4989974
3971.1	-1.4989101
3970.2	-1.4987284
3969.2	-1.4987080
3968.2	-1.4989133
3967.3	-1.4991468
3966.3	-1.4993445
3965.3	-1.4995016
3964.4	-1.4995646
3963.4	-1.4995565
3962.4	-1.4995307
3961.5	-1.4994545
3960.5	-1.4992862
3959.6	-1.4991657
3958.6	-1.4992400
3957.6	-1.4993507
3956.7	-1.4993865
3955.7	-1.4995545
3954.7	-1.4998137
3953.8	-1.4999243
3952.8	-1.4999300
3951.8	-1.4997829
3950.9	-1.4995099
3949.9	-1.4994762
3948.9	-1.4995825
3948.0	-1.4996048
3947.0	-1.4998215
3946.1	-1.5000920
3945.1	-1.4999084
3944.1	-1.4994506
3943.2	-1.4993340
3942.2	-1.4996560
3941.2	-1.4999264
3940.3	-1.4999232
3939.3	-1.4998752
3938.3	-1.4999461
3937.4	-1.5000985
3936.4	-1.5001827
3935.4	-1.5001233
3934.5	-1.4998822
3933.5	-1.4995558
3932.6	-1.4995832
3931.6	-1.5000212
3930.6	-1.5002986
3929.7	-1.5002493
3928.7	-1.5002073
3927.7	-1.5001731
3926.8	-1.4999036
3925.8	-1.4995601
3924.8	-1.4996095
3923.9	-1.5000185
3922.9	-1.5002471
3921.9	-1.5000929
3921.0	-1.4999431
3920.0	-1.5000924
3919.1	-1.5000591
3918.1	-1.4997270
3917.1	-1.4999329
3916.2	-1.5006092
3915.2	-1.5008636
3914.2	-1.5006546
3913.3	-1.5004905
3912.3	-1.5005198
3911.3	-1.5005443
3910.4	-1.5005083
3909.4	-1.5005991
3908.4	-1.5007111
3907.5	-1.5005188
3906.5	-1.4999037
3905.6	-1.4990302
3904.6	-1.4986876
3903.6	-1.4989871
3902.7	-1.4991781
3901.7	-1.4995254
3900.7	-1.4998208
3899.8	-1.4997201
3898.8	-1.5001717
3897.8	-1.5008792
3896.9	-1.5010148
3895.9	-1.5009683
3894.9	-1.5009713
3894.0	-1.5007178
3893.0	-1.4999033
3892.1	-1.4992028
3891.1	-1.4997718
3890.1	-1.5008309
3889.2	-1.5009755
3888.2	-1.5002741
3887.2	-1.4990722
3886.3	-1.4986241
3885.3	-1.4999655
3884.3	-1.5012361
3883.4	-1.5011188
3882.4	-1.5003685
3881.4	-1.4996358
3880.5	-1.4997592
3879.5	-1.5007913
3878.6	-1.5013888
3877.6	-1.5012165
3876.6	-1.5008370
3875.7	-1.5003225
3874.7	-1.5002273
3873.7	-1.5008513
3872.8	-1.5008105
3871.8	-1.4991760
3870.8	-1.4977186
3869.9	-1.4987425
3868.9	-1.5011129
3867.9	-1.5019685
3867.0	-1.5008460
3866.0	-1.4994640
3865.1	-1.4995781
3864.1	-1.5007007
3863.1	-1.5010010
3862.2	-1.5007541
3861.2	-1.5011312
3860.2	-1.5015860
3859.3	-1.5014095
3858.3	-1.5009625
3857.3	-1.5005699
3856.4	-1.4987915
3855.4	-1.4952316
3854.4	-1.4943005
3853.5	-1.4973755
3852.5	-1.5001237
3851.6	-1.5016590
3850.6	-1.5025654
3849.6	-1.5023161
3848.7	-1.5018333
3847.7	-1.5016457
3846.7	-1.5014920
3845.8	-1.5012331
3844.8	-1.5010046
3843.8	-1.5012816
3842.9	-1.5016477
3841.9	-1.5013983
3840.9	-1.5011939
3840.0	-1.5006971
3839.0	-1.4990762
3838.0	-1.4991510
3837.1	-1.5016862
3836.1	-1.5026441
3835.2	-1.5020207
3834.2	-1.5021729
3833.2	-1.5021105
3832.3	-1.5015703
3831.3	-1.5019472
3830.3	-1.5027324
3829.4	-1.5028117
3828.4	-1.5022820
3827.4	-1.5017270
3826.5	-1.5017216
3825.5	-1.5021275
3824.5	-1.5021523
3823.6	-1.5011588
3822.6	-1.4995856
3821.7	-1.4994713
3820.7	-1.5014950
3819.7	-1.5032786
3818.8	-1.5028142
3817.8	-1.5003425
3816.8	-1.4985652
3815.9	-1.5002338
3814.9	-1.5030704
3813.9	-1.5036335
3813.0	-1.5029217
3812.0	-1.5026001
3811.0	-1.5025457
3810.1	-1.5022722
3809.1	-1.5012023
3808.2	-1.4997432
3807.2	-1.4999903
3806.2	-1.5020828
3805.3	-1.5031885
3804.3	-1.5023700
3803.3	-1.5003389
3802.4	-1.4984250
3801.4	-1.4994634
3800.4	-1.5026507
3799.5	-1.5040532
3798.5	-1.5033400
3797.5	-1.5024092
3796.6	-1.5022224
3795.6	-1.5026708
3794.7	-1.5029223
3793.7	-1.5028274
3792.7	-1.5029055
3791.8	-1.5030818
3790.8	-1.5030478
3789.8	-1.5029109
3788.9	-1.5029079
3787.9	-1.5029836
3786.9	-1.5029687
3786.0	-1.5029536
3785.0	-1.5030758
3784.0	-1.5031900
3783.1	-1.5030340
3782.1	-1.5026243
3781.2	-1.5020610
3780.2	-1.5016779
3779.2	-1.5020478
3778.3	-1.5028080
3777.3	-1.5032700
3776.3	-1.5034633
3775.4	-1.5034961
3774.4	-1.5034270
3773.4	-1.5033469
3772.5	-1.5030278
3771.5	-1.5021821
3770.5	-1.5016425
3769.6	-1.5024396
3768.6	-1.5034686
3767.7	-1.5032212
3766.7	-1.5024290
3765.7	-1.5025002
3764.8	-1.5030973
3763.8	-1.5032008
3762.8	-1.5028619
3761.9	-1.5023074
3760.9	-1.5016861
3759.9	-1.5017923
3759.0	-1.5026317
3758.0	-1.5029732
3757.0	-1.5027487
3756.1	-1.5028237
3755.1	-1.5027262
3754.2	-1.5010341
3753.2	-1.4988208
3752.2	-1.4994277
3751.3	-1.5010462
3750.3	-1.5003679
3749.3	-1.5007268
3748.4	-1.5031775
3747.4	-1.5033239
3746.4	-1.4997653
3745.5	-1.4962827
3744.5	-1.4981742
3743.5	-1.5032449
3742.6	-1.5047762
3741.6	-1.5033853
3740.7	-1.5026027
3739.7	-1.5024427
3738.7	-1.5018184
3737.8	-1.5008671
3736.8	-1.5005380
3735.8	-1.5011001
3734.9	-1.5018495
3733.9	-1.5017195
3732.9	-1.5009772
3732.0	-1.5014954
3731.0	-1.5029702
3730.0	-1.5034848
3729.1	-1.5031120
3728.1	-1.5025363
3727.2	-1.5021615
3726.2	-1.5024093
3725.2	-1.5027684
3724.3	-1.5026404
3723.3	-1.5023323
3722.3	-1.5024776
3721.4	-1.5029762
3720.4	-1.5031290
3719.4	-1.5030475
3718.5	-1.5032085
3717.5	-1.5033277
3716.5	-1.5030894
3715.6	-1.5028099
3714.6	-1.5023932
3713.7	-1.5012298
3712.7	-1.5005913
3711.7	-1.5018768
3710.8	-1.5030569
3709.8	-1.5030009
3708.8	-1.5032464
3707.9	-1.5037022
3706.9	-1.5036944
3705.9	-1.5036461
3705.0	-1.5036373
3704.0	-1.5033449
3703.0	-1.5027106
3702.1	-1.5024180
3701.1	-1.5029254
3700.1	-1.5034763
3699.2	-1.5035073
3698.2	-1.5033975
3697.3	-1.5034364
3696.3	-1.5035149
3695.3	-1.5034839
3694.4	-1.5033203
3693.4	-1.5028772
3692.4	-1.5020834
3691.5	-1.5017040
3690.5	-1.5013541
3689.5	-1.5002369
3688.6	-1.5007467
3687.6	-1.5034148
3686.6	-1.5046124
3685.7	-1.5038167
3684.7	-1.5032413
3683.8	-1.5033661
3682.8	-1.5036026
3681.8	-1.5035691
3680.9	-1.5031602
3679.9	-1.5027263
3678.9	-1.5024986
3678.0	-1.5015037
3677.0	-1.4995764
3676.0	-1.4993016
3675.1	-1.5017679
3674.1	-1.5040983
3673.1	-1.5037946
3672.2	-1.5014391
3671.2	-1.5000187
3670.3	-1.5011702
3669.3	-1.5027983
3668.3	-1.5034651
3667.4	-1.5036536
3666.4	-1.5034611
3665.4	-1.5031703
3664.5	-1.5030942
3663.5	-1.5031891
3662.5	-1.5033885
3661.6	-1.5035477
3660.6	-1.5035770
3659.6	-1.5034282
3658.7	-1.5028273
3657.7	-1.5016439
3656.8	-1.5012583
3655.8	-1.5026340
3654.8	-1.5039172
3653.9	-1.5036163
3652.9	-1.5023193
3651.9	-1.5009164
3651.0	-1.4999794
3650.0	-1.5000380
3649.0	-1.5011749
3648.1	-1.5023677
3647.1	-1.5030246
3646.1	-1.5035136
3645.2	-1.5036585
3644.2	-1.5033826
3643.3	-1.5031731
3642.3	-1.5031830
3641.3	-1.5032485
3640.4	-1.5032399
3639.4	-1.5031534
3638.4	-1.5030628
3637.5	-1.5030338
3636.5	-1.5030339
3635.5	-1.5029246
3634.6	-1.5028152
3633.6	-1.5029544
3632.6	-1.5029901
3631.7	-1.5021037
3630.7	-1.5003064
3629.8	-1.4993603
3628.8	-1.5007713
3627.8	-1.5029556
3626.9	-1.5036559
3625.9	-1.5032309
3624.9	-1.5028977
3624.0	-1.5027728
3623.0	-1.5026189
3622.0	-1.5022291
3621.1	-1.5013822
3620.1	-1.5007944
3619.1	-1.5011985
3618.2	-1.5019261
3617.2	-1.5022134
3616.3	-1.5018815
3615.3	-1.5011494
3614.3	-1.5004327
3613.4	-1.4999273
3612.4	-1.4998980
3611.4	-1.4996678
3610.5	-1.4984580
3609.5	-1.4976032
3608.5	-1.4976401
3607.6	-1.4970913
3606.6	-1.4958346
3605.6	-1.4945647
3604.7	-1.4931095
3603.7	-1.4913795
3602.8	-1.4895872
3601.8	-1.4879547
3600.8	-1.4866443
3599.9	-1.4854331
3598.9	-1.4840198
3597.9	-1.4824760
3597.0	-1.4811201
3596.0	-1.4803942
3595.0	-1.4803523
3594.1	-1.4805005
3593.1	-1.4808106
3592.1	-1.4815949
3591.2	-1.4824601
3590.2	-1.4829689
3589.3	-1.4837172
3588.3	-1.4849392
3587.3	-1.4849854
3586.4	-1.4831187
3585.4	-1.4818821
3584.4	-1.4819607
3583.5	-1.4789766
3582.5	-1.4722818
3581.5	-1.4691544
3580.6	-1.4733466
3579.6	-1.4798383
3578.6	-1.4839365
3577.7	-1.4854766
3576.7	-1.4855779
3575.8	-1.4848896
3574.8	-1.4838692
3573.8	-1.4828552
3572.9	-1.4819760
3571.9	-1.4812295
3570.9	-1.4805650
3570.0	-1.4798483
3569.0	-1.4793321
3568.0	-1.4797292
3567.1	-1.4810421
3566.1	-1.4825865
3565.1	-1.4840026
3564.2	-1.4853621
3563.2	-1.4868737
3562.3	-1.4884306
3561.3	-1.4897472
3560.3	-1.4909381
3559.4	-1.4921875
3558.4	-1.4933370
3557.4	-1.4942958
3556.5	-1.4951435
3555.5	-1.4958791
3554.5	-1.4965593
3553.6	-1.4972140
3552.6	-1.4978505
3551.6	-1.4984927
3550.7	-1.4989929
3549.7	-1.4992831
3548.7	-1.4993464
3547.8	-1.4992175
3546.8	-1.4992387
3545.9	-1.4995444
3544.9	-1.4998646
3543.9	-1.5000703
3543.0	-1.5002449
3542.0	-1.5004121
3541.0	-1.5005381
3540.1	-1.5006334
3539.1	-1.5007063
3538.1	-1.5007024
3537.2	-1.5005749
3536.2	-1.5004330
3535.2	-1.5004197
3534.3	-1.5004631
3533.3	-1.5004359
3532.4	-1.5003377
3531.4	-1.5002114
3530.4	-1.5001272
3529.5	-1.5001744
3528.5	-1.5003395
3527.5	-1.5004482
3526.6	-1.5004019
3525.6	-1.5003141
3524.6	-1.5002728
3523.7	-1.5002822
3522.7	-1.5003933
3521.7	-1.5005592
3520.8	-1.5005900
3519.8	-1.5005041
3518.9	-1.5005045
3517.9	-1.5005744
3516.9	-1.5005895
3516.0	-1.5005345
3515.0	-1.5003972
3514.0	-1.5002241
3513.1	-1.5001538
3512.1	-1.5001098
3511.1	-1.4999135
3510.2	-1.4997613
3509.2	-1.4998494
3508.2	-1.4999497
3507.3	-1.4999208
3506.3	-1.4998652
3505.4	-1.4997320
3504.4	-1.4994836
3503.4	-1.4993782
3502.5	-1.4994932
3501.5	-1.4995016
3500.5	-1.4993435
3499.6	-1.4992896
3498.6	-1.4993374
3497.6	-1.4993290
3496.7	-1.4992989
3495.7	-1.4993058
3494.7	-1.4992718
3493.8	-1.4991527
3492.8	-1.4990640
3491.9	-1.4990407
3490.9	-1.4989524
3489.9	-1.4987307
3489.0	-1.4984627
3488.0	-1.4983124
3487.0	-1.4982796
3486.1	-1.4982209
3485.1	-1.4981315
3484.1	-1.4980117
3483.2	-1.4978023
3482.2	-1.4975846
3481.2	-1.4974415
3480.3	-1.4973146
3479.3	-1.4971724
3478.4	-1.4970434
3477.4	-1.4969125
3476.4	-1.4967804
3475.5	-1.4966919
3474.5	-1.4965726
3473.5	-1.4962738
3472.6	-1.4959350
3471.6	-1.4958596
3470.6	-1.4960061
3469.7	-1.4960531
3468.7	-1.4958600
3467.7	-1.4955785
3466.8	-1.4953063
3465.8	-1.4950123
3464.9	-1.4947180
3463.9	-1.4943918
3462.9	-1.4940315
3462.0	-1.4937720
3461.0	-1.4936725
3460.0	-1.4936122
3459.1	-1.4934642
3458.1	-1.4932607
3457.1	-1.4930326
3456.2	-1.4927260
3455.2	-1.4923960
3454.2	-1.4921618
3453.3	-1.4920033
3452.3	-1.4918251
3451.4	-1.4915949
3450.4	-1.4913645
3449.4	-1.4911842
3448.5	-1.4909519
3447.5	-1.4906155
3446.5	-1.4903322
3445.6	-1.4901536
3444.6	-1.4899707
3443.6	-1.4897091
3442.7	-1.4893785
3441.7	-1.4890082
3440.7	-1.4886467
3439.8	-1.4883834
3438.8	-1.4882035
3437.9	-1.4880286
3436.9	-1.4878588
3435.9	-1.4876846
3435.0	-1.4874140
3434.0	-1.4870000
3433.0	-1.4865547
3432.1	-1.4861693
3431.1	-1.4857980
3430.1	-1.4853952
3429.2	-1.4849734
3428.2	-1.4845033
3427.2	-1.4839079
3426.3	-1.4832360
3425.3	-1.4826099
3424.4	-1.4820849
3423.4	-1.4816451
3422.4	-1.4811968
3421.5	-1.4807022
3420.5	-1.4802309
3419.5	-1.4798044
3418.6	-1.4793193
3417.6	-1.4786036
3416.6	-1.4776691
3415.7	-1.4767735
3414.7	-1.4760718
3413.7	-1.4754784
3412.8	-1.4748329
3411.8	-1.4740902
3410.8	-1.4733691
3409.9	-1.4726980
3408.9	-1.4719659
3408.0	-1.4711789
3407.0	-1.4704103
3406.0	-1.4696492
3405.1	-1.4688804
3404.1	-1.4681844
3403.1	-1.4676303
3402.2	-1.4671284
3401.2	-1.4665828
3400.2	-1.4660218
3399.3	-1.4654835
3398.3	-1.4650131
3397.3	-1.4646348
3396.4	-1.4642992
3395.4	-1.4640043
3394.5	-1.4637986
3393.5	-1.4637030
3392.5	-1.4636697
3391.6	-1.4635859
3390.6	-1.4634187
3389.6	-1.4632344
3388.7	-1.4630769
3387.7	-1.4629949
3386.7	-1.4630603
3385.8	-1.4632170
3384.8	-1.4632516
3383.8	-1.4630561
3382.9	-1.4628154
3381.9	-1.4627659
3381.0	-1.4628130
3380.0	-1.4626192
3379.0	-1.4621435
3378.1	-1.4617432
3377.1	-1.4615910
3376.1	-1.4614303
3375.2	-1.4610142
3374.2	-1.4604998
3373.2	-1.4601899
3372.3	-1.4599860
3371.3	-1.4596334
3370.3	-1.4591564
3369.4	-1.4586232
3368.4	-1.4580708
3367.5	-1.4575384
3366.5	-1.4569374
3365.5	-1.4562457
3364.6	-1.4556047
3363.6	-1.4550370
3362.6	-1.4544207
3361.7	-1.4537823
3360.7	-1.4532497
3359.7	-1.4527595
3358.8	-1.4521407
3357.8	-1.4513994
3356.8	-1.4506450
3355.9	-1.4499117
3354.9	-1.4492328
3354.0	-1.4485432
3353.0	-1.4477378
3352.0	-1.4469665
3351.1	-1.4463077
3350.1	-1.4455274
3349.1	-1.4445922
3348.2	-1.4437555
3347.2	-1.4429940
3346.2	-1.4420544
3345.3	-1.4409816
3344.3	-1.4400263
3343.3	-1.4392356
3342.4	-1.4384583
3341.4	-1.4375932
3340.5	-1.4366527
3339.5	-1.4356741
3338.5	-1.4346644
3337.6	-1.4336145
3336.6	-1.4325449
3335.6	-1.4314319
3334.7	-1.4302202
3333.7	-1.4289448
3332.7	-1.4277265
3331.8	-1.4267044
3330.8	-1.4258610
3329.8	-1.4249768
3328.9	-1.4238420
3327.9	-1.4225166
3327.0	-1.4212581
3326.0	-1.4201006
3325.0	-1.4189078
3324.1	-1.4176378
3323.1	-1.4162930
3322.1	-1.4148990
3321.2	-1.4135060
3320.2	-1.4121603
3319.2	-1.4108377
3318.3	-1.4094880
3317.3	-1.4081359
3316.3	-1.4068038
3315.4	-1.4054816
3314.4	-1.4041466
3313.5	-1.4028149
3312.5	-1.4015032
3311.5	-1.4001242
3310.6	-1.3986776
3309.6	-1.3972723
3308.6	-1.3958837
3307.7	-1.3945414
3306.7	-1.3934093
3305.7	-1.3923771
3304.8	-1.3911588
3303.8	-1.3897440
3302.8	-1.3883325
3301.9	-1.3870449
3300.9	-1.3858169
3300.0	-1.3845098
3299.0	-1.3831401
3298.0	-1.3819346
3297.1	-1.3809240
3296.1	-1.3797464
3295.1	-1.3782607
3294.2	-1.3768280
3293.2	-1.3757414
3292.2	-1.3747842
3291.3	-1.3735915
3290.3	-1.3722332
3289.3	-1.3709602
3288.4	-1.3697075
3287.4	-1.3682817
3286.5	-1.3667278
3285.5	-1.3652576
3284.5	-1.3639575
3283.6	-1.3626994
3282.6	-1.3613253
3281.6	-1.3598456
3280.7	-1.3583331
3279.7	-1.3567853
3278.7	-1.3551871
3277.8	-1.3535558
3276.8	-1.3519497
3275.8	-1.3503367
3274.9	-1.3485463
3273.9	-1.3465797
3272.9	-1.3446667
3272.0	-1.3429008
3271.0	-1.3411216
3270.1	-1.3391927
3269.1	-1.3371757
3268.1	-1.3351667
3267.2	-1.3332196
3266.2	-1.3313739
3265.2	-1.3295701
3264.3	-1.3277737
3263.3	-1.3260036
3262.3	-1.3242117
3261.4	-1.3224256
3260.4	-1.3206859
3259.4	-1.3189564
3258.5	-1.3172876
3257.5	-1.3157345
3256.6	-1.3142246
3255.6	-1.3126675
3254.6	-1.3110639
3253.7	-1.3094900
3252.7	-1.3080065
3251.7	-1.3065829
3250.8	-1.3051715
3249.8	-1.3037597
3248.8	-1.3023163
3247.9	-1.3008310
3246.9	-1.2993704
3245.9	-1.2980301
3245.0	-1.2967906
3244.0	-1.2955129
3243.1	-1.2941532
3242.1	-1.2927738
3241.1	-1.2914106
3240.2	-1.2901269
3239.2	-1.2889568
3238.2	-1.2877648
3237.3	-1.2865281
3236.3	-1.2853971
3235.3	-1.2843164
3234.4	-1.2831813
3233.4	-1.2820381
3232.4	-1.2808789
3231.5	-1.2796911
3230.5	-1.2785255
3229.6	-1.2773398
3228.6	-1.2760714
3227.6	-1.2747815
3226.7	-1.2735503
3225.7	-1.2723855
3224.7	-1.2711843
3223.8	-1.2698067
3222.8	-1.2683077
3221.8	-1.2668279
3220.9	-1.2653692
3219.9	-1.2638936
3218.9	-1.2623477
3218.0	-1.2606785
3217.0	-1.2589594
3216.1	-1.2571836
3215.1	-1.2552612
3214.1	-1.2533466
3213.2	-1.2515726
3212.2	-1.2497947
3211.2	-1.2479533
3210.3	-1.2461847
3209.3	-1.2445225
3208.3	-1.2427963
3207.4	-1.2409312
3206.4	-1.2391288
3205.4	-1.2376237
3204.5	-1.2364377
3203.5	-1.2353278
3202.6	-1.2340692
3201.6	-1.2328143
3200.6	-1.2318170
3199.7	-1.2309881
3198.7	-1.2300858
3197.7	-1.2291125
3196.8	-1.2282454
3195.8	-1.2275755
3194.8	-1.2270499
3193.9	-1.2265304
3192.9	-1.2259396
3191.9	-1.2253377
3191.0	-1.2248049
3190.0	-1.2242970
3189.1	-1.2236913
3188.1	-1.2230552
3187.1	-1.2225432
3186.2	-1.2220896
3185.2	-1.2216030
3184.2	-1.2211211
3183.3	-1.2206842
3182.3	-1.2203135
3181.3	-1.2199963
3180.4	-1.2196263
3179.4	-1.2190857
3178.4	-1.2184250
3177.5	-1.2177802
3176.5	-1.2171595
3175.6	-1.2164935
3174.6	-1.2157464
3173.6	-1.2148910
3172.7	-1.2138995
3171.7	-1.2128069
3170.7	-1.2116520
3169.8	-1.2103680
3168.8	-1.2088982
3167.8	-1.2072728
3166.9	-1.2054924
3165.9	-1.2035122
3164.9	-1.2012615
3164.0	-1.1987081
3163.0	-1.1959133
3162.1	-1.1929297
3161.1	-1.1897798
3160.1	-1.1864210
3159.2	-1.1827427
3158.2	-1.1788009
3157.2	-1.1747776
3156.3	-1.1706780
3155.3	-1.1664069
3154.3	-1.1620477
3153.4	-1.1577293
3152.4	-1.1533713
3151.4	-1.1489162
3150.5	-1.1445796
3149.5	-1.1405578
3148.6	-1.1368372
3147.6	-1.1334405
3146.6	-1.1304142
3145.7	-1.1276833
3144.7	-1.1251669
3143.7	-1.1229181
3142.8	-1.1211020
3141.8	-1.1197411
3140.8	-1.1186420
3139.9	-1.1176442
3138.9	-1.1167419
3137.9	-1.1160294
3137.0	-1.1155541
3136.0	-1.1151776
3135.1	-1.1147225
3134.1	-1.1142890
3133.1	-1.1141168
3132.2	-1.1141429
3131.2	-1.1141222
3130.2	-1.1140556
3129.3	-1.1141214
3128.3	-1.1143445
3127.3	-1.1146785
3126.4	-1.1151372
3125.4	-1.1156477
3124.4	-1.1161392
3123.5	-1.1167188
3122.5	-1.1175028
3121.5	-1.1184820
3120.6	-1.1196318
3119.6	-1.1208656
3118.7	-1.1220511
3117.7	-1.1232418
3116.7	-1.1245090
3115.8	-1.1257442
3114.8	-1.1269023
3113.8	-1.1280249
3112.9	-1.1290629
3111.9	-1.1299860
3110.9	-1.1307696
3110.0	-1.1312504
3109.0	-1.1314147
3108.0	-1.1315304
3107.1	-1.1316622
3106.1	-1.1315405
3105.2	-1.1310199
3104.2	-1.1302220
3103.2	-1.1292441
3102.3	-1.1279241
3101.3	-1.1260916
3100.3	-1.1239185
3099.4	-1.1215706
3098.4	-1.1189493
3097.4	-1.1160452
3096.5	-1.1130511
3095.5	-1.1101164
3094.5	-1.1071424
3093.6	-1.1039878
3092.6	-1.1007481
3091.7	-1.0975454
3090.7	-1.0943666
3089.7	-1.0912097
3088.8	-1.0881450
3087.8	-1.0852367
3086.8	-1.0825374
3085.9	-1.0800772
3084.9	-1.0777594
3083.9	-1.0755121
3083.0	-1.0734546
3082.0	-1.0716618
3081.0	-1.0700339
3080.1	-1.0684695
3079.1	-1.0669916
3078.2	-1.0657405
3077.2	-1.0647835
3076.2	-1.0640846
3075.3	-1.0636986
3074.3	-1.0636404
3073.3	-1.0638186
3072.4	-1.0642091
3071.4	-1.0648131
3070.4	-1.0656096
3069.5	-1.0666039
3068.5	-1.0677328
3067.5	-1.0688744
3066.6	-1.0700363
3065.6	-1.0712092
3064.7	-1.0723108
3063.7	-1.0733396
3062.7	-1.0741861
3061.8	-1.0747613
3060.8	-1.0752397
3059.8	-1.0757560
3058.9	-1.0762398
3057.9	-1.0766321
3056.9	-1.0770395
3056.0	-1.0775734
3055.0	-1.0782248
3054.0	-1.0789495
3053.1	-1.0797181
3052.1	-1.0805553
3051.2	-1.0814366
3050.2	-1.0822128
3049.2	-1.0828245
3048.3	-1.0833262
3047.3	-1.0836962
3046.3	-1.0838798
3045.4	-1.0838661
3044.4	-1.0836320
3043.4	-1.0831076
3042.5	-1.0821209
3041.5	-1.0805273
3040.5	-1.0783892
3039.6	-1.0757791
3038.6	-1.0726634
3037.7	-1.0690334
3036.7	-1.0649064
3035.7	-1.0604109
3034.8	-1.0558931
3033.8	-1.0517371
3032.8	-1.0482463
3031.9	-1.0456438
3030.9	-1.0439801
3029.9	-1.0431949
3029.0	-1.0432366
3028.0	-1.0439094
3027.0	-1.0448645
3026.1	-1.0458753
3025.1	-1.0468413
3024.2	-1.0477542
3023.2	-1.0487105
3022.2	-1.0496838
3021.3	-1.0505446
3020.3	-1.0512824
3019.3	-1.0520175
3018.4	-1.0527877
3017.4	-1.0534492
3016.4	-1.0539403
3015.5	-1.0543214
3014.5	-1.0546411
3013.5	-1.0550200
3012.6	-1.0555916
3011.6	-1.0564020
3010.7	-1.0575165
3009.7	-1.0591120
3008.7	-1.0614028
3007.8	-1.0644931
3006.8	-1.0683494
3005.8	-1.0728928
3004.9	-1.0780503
3003.9	-1.0837497
3002.9	-1.0899875
3002.0	-1.0968232
3001.0	-1.1042008
3000.0	-1.1118540
2999.1	-1.1193540
2998.1	-1.1266072
2997.2	-1.1343232
2996.2	-1.1430007
2995.2	-1.1519915
2994.3	-1.1605994
2993.3	-1.1688561
2992.3	-1.1768296
2991.4	-1.1843629
2990.4	-1.1913625
2989.4	-1.1978037
2988.5	-1.2036003
2987.5	-1.2085770
2986.5	-1.2126420
2985.6	-1.2158440
2984.6	-1.2181364
2983.6	-1.2193593
2982.7	-1.2193987
2981.7	-1.2181995
2980.8	-1.2158034
2979.8	-1.2123038
2978.8	-1.2077491
2977.9	-1.2021687
2976.9	-1.1955692
2975.9	-1.1879976
2975.0	-1.1796337
2974.0	-1.1706778
2973.0	-1.1611854
2972.1	-1.1511989
2971.1	-1.1409699
2970.1	-1.1308355
2969.2	-1.1210849
2968.2	-1.1119406
2967.3	-1.1034633
2966.3	-1.0957146
2965.3	-1.0888928
2964.4	-1.0830851
2963.4	-1.0782756
2962.4	-1.0745636
2961.5	-1.0720382
2960.5	-1.0706528
2959.5	-1.0702811
2958.6	-1.0707506
2957.6	-1.0719563
2956.6	-1.0739377
2955.7	-1.0766231
2954.7	-1.0796964
2953.8	-1.0828772
2952.8	-1.0860425
2951.8	-1.0891578
2950.9	-1.0922372
2949.9	-1.0952576
2948.9	-1.0981649
2948.0	-1.1008977
2947.0	-1.1034387
2946.0	-1.1058671
2945.1	-1.1082354
2944.1	-1.1105560
2943.1	-1.1129415
2942.2	-1.1154684
2941.2	-1.1179652
2940.3	-1.1202832
2939.3	-1.1224891
2938.3	-1.1246462
2937.4	-1.1268021
2936.4	-1.1290478
2935.4	-1.1313552
2934.5	-1.1335975
2933.5	-1.1358103
2932.5	-1.1381058
2931.6	-1.1404318
2930.6	-1.1427795
2929.6	-1.1452622
2928.7	-1.1478785
2927.7	-1.1506085
2926.8	-1.1535869
2925.8	-1.1569455
2924.8	-1.1606779
2923.9	-1.1647483
2922.9	-1.1691900
2921.9	-1.1740123
2921.0	-1.1791526
2920.0	-1.1845740
2919.0	-1.1902255
2918.1	-1.1960618
2917.1	-1.2020411
2916.1	-1.2079929
2915.2	-1.2138524
2914.2	-1.2197086
2913.3	-1.2254816
2912.3	-1.2310303
2911.3	-1.2364193
2910.4	-1.2417765
2909.4	-1.2470627
2908.4	-1.2521751
2907.5	-1.2570525
2906.5	-1.2616656
2905.5	-1.2660747
2904.6	-1.2702968
2903.6	-1.2742507
2902.6	-1.2780148
2901.7	-1.2818097
2900.7	-1.2856747
2899.8	-1.2893877
2898.8	-1.2927274
2897.8	-1.2957493
2896.9	-1.2986116
2895.9	-1.3012809
2894.9	-1.3037390
2894.0	-1.3061186
2893.0	-1.3084668
2892.0	-1.3106825
2891.1	-1.3127092
2890.1	-1.3145596
2889.1	-1.3162174
2888.2	-1.3177818
2887.2	-1.3193856
2886.3	-1.3209348
2885.3	-1.3223130
2884.3	-1.3235486
2883.4	-1.3246378
2882.4	-1.3255559
2881.4	-1.3263991
2880.5	-1.3272080
2879.5	-1.3278500
2878.5	-1.3282769
2877.6	-1.3286307
2876.6	-1.3289744
2875.6	-1.3291699
2874.7	-1.3291570
2873.7	-1.3289964
2872.8	-1.3287435
2871.8	-1.3285400
2870.8	-1.3284833
2869.9	-1.3284800
2868.9	-1.3283751
2867.9	-1.3281577
2867.0	-1.3279786
2866.0	-1.3278469
2865.0	-1.3276049
2864.1	-1.3272411
2863.1	-1.3268887
2862.1	-1.3266065
2861.2	-1.3263514
2860.2	-1.3261281
2859.3	-1.3260162
2858.3	-1.3259685
2857.3	-1.3258232
2856.4	-1.3255624
2855.4	-1.3253009
2854.4	-1.3250821
2853.5	-1.3248059
2852.5	-1.3244302
2851.5	-1.3240733
2850.6	-1.3237835
2849.6	-1.3235649
2848.6	-1.3234622
2847.7	-1.3234158
2846.7	-1.3233267
2845.7	-1.3231748
2844.8	-1.3229396
2843.8	-1.3226163
2842.9	-1.3223521
2841.9	-1.3222882
2840.9	-1.3223164
2840.0	-1.3222306
2839.0	-1.3220494
2838.0	-1.3220382
2837.1	-1.3223658
2836.1	-1.3229280
2835.1	-1.3236279
2834.2	-1.3245398
2833.2	-1.3256133
2832.2	-1.3267055
2831.3	-1.3279661
2830.3	-1.3295715
2829.4	-1.3313651
2828.4	-1.3331839
2827.4	-1.3350856
2826.5	-1.3370438
2825.5	-1.3388809
2824.5	-1.3406224
2823.6	-1.3423215
2822.6	-1.3437724
2821.6	-1.3449042
2820.7	-1.3458583
2819.7	-1.3466231
2818.7	-1.3471345
2817.8	-1.3475151
2816.8	-1.3479337
2815.9	-1.3484104
2814.9	-1.3488123
2813.9	-1.3490320
2813.0	-1.3490802
2812.0	-1.3490477
2811.0	-1.3491110
2810.1	-1.3493325
2809.1	-1.3495922
2808.1	-1.3497936
2807.2	-1.3498572
2806.2	-1.3498125
2805.2	-1.3497951
2804.3	-1.3497308
2803.3	-1.3494624
2802.4	-1.3490037
2801.4	-1.3483917
2800.4	-1.3477066
2799.5	-1.3471130
2798.5	-1.3464855
2797.5	-1.3455567
2796.6	-1.3444878
2795.6	-1.3435438
2794.6	-1.3426450
2793.7	-1.3416812
2792.7	-1.3407092
2791.7	-1.3397976
2790.8	-1.3389226
2789.8	-1.3380117
2788.9	-1.3371056
2787.9	-1.3363322
2786.9	-1.3356905
2786.0	-1.3350440
2785.0	-1.3343552
2784.0	-1.3337641
2783.1	-1.3333464
2782.1	-1.3330377
2781.1	-1.3327787
2780.2	-1.3325752
2779.2	-1.3325529
2778.2	-1.3327625
2777.3	-1.3330545
2776.3	-1.3334556
2775.4	-1.3341566
2774.4	-1.3351045
2773.4	-1.3361062
2772.5	-1.3371564
2771.5	-1.3384125
2770.5	-1.3399576
2769.6	-1.3417273
2768.6	-1.3436484
2767.6	-1.3456827
2766.7	-1.3478301
2765.7	-1.3501531
2764.7	-1.3526258
2763.8	-1.3551810
2762.8	-1.3578488
2761.9	-1.3605554
2760.9	-1.3631742
2759.9	-1.3657932
2759.0	-1.3684887
2758.0	-1.3711240
2757.0	-1.3735946
2756.1	-1.3759321
2755.1	-1.3781683
2754.1	-1.3803221
2753.2	-1.3823874
2752.2	-1.3842683
2751.2	-1.3858776
2750.3	-1.3872601
2749.3	-1.3885064
2748.4	-1.3896030
2747.4	-1.3904645
2746.4	-1.3910903
2745.5	-1.3915861
2744.5	-1.3920057
2743.5	-1.3922668
2742.6	-1.3922791
2741.6	-1.3920521
2740.6	-1.3916948
2739.7	-1.3913308
2738.7	-1.3909258
2737.7	-1.3903693
2736.8	-1.3896782
2735.8	-1.3889258
2734.9	-1.3881624
2733.9	-1.3874158
2732.9	-1.3866415
2732.0	-1.3857981
2731.0	-1.3849444
2730.0	-1.3841351
2729.1	-1.3833656
2728.1	-1.3826820
2727.1	-1.3821354
2726.2	-1.3816181
2725.2	-1.3809342
2724.2	-1.3800408
2723.3	-1.3790417
2722.3	-1.3779753
2721.4	-1.3768332
2720.4	-1.3756024
2719.4	-1.3741553
2718.5	-1.3723748
2717.5	-1.3702602
2716.5	-1.3678093
2715.6	-1.3650024
2714.6	-1.3617963
2713.6	-1.3582100
2712.7	-1.3544447
2711.7	-1.3506323
2710.7	-1.3466800
2709.8	-1.3425463
2708.8	-1.3383688
2707.9	-1.3342562
2706.9	-1.3302662
2705.9	-1.3265303
2705.0	-1.3231305
2704.0	-1.3201672
2703.0	-1.3178105
2702.1	-1.3160067
2701.1	-1.3146334
2700.1	-1.3138102
2699.2	-1.3136575
2698.2	-1.3140783
2697.2	-1.3149474
2696.3	-1.3162721
2695.3	-1.3181158
2694.3	-1.3204821
2693.4	-1.3232187
2692.4	-1.3261772
2691.5	-1.3293792
2690.5	-1.3328440
2689.5	-1.3365020
2688.6	-1.3402015
2687.6	-1.3438289
2686.6	-1.3474399
2685.7	-1.3510661
2684.7	-1.3545957
2683.7	-1.3579253
2682.8	-1.3611063
2681.8	-1.3642373
2680.8	-1.3672763
2679.9	-1.3700625
2678.9	-1.3724744
2678.0	-1.3745296
2677.0	-1.3762394
2676.0	-1.3775544
2675.1	-1.3785629
2674.1	-1.3794121
2673.1	-1.3800918
2672.2	-1.3805199
2671.2	-1.3807279
2670.2	-1.3808794
2669.3	-1.3810833
2668.3	-1.3813025
2667.3	-1.3815465
2666.4	-1.3818765
2665.4	-1.3822414
2664.5	-1.3826755
2663.5	-1.3833554
2662.5	-1.3842381
2661.6	-1.3851795
2660.6	-1.3862044
2659.6	-1.3871826
2658.7	-1.3878387
2657.7	-1.3880450
2656.7	-1.3875995
2655.8	-1.3861876
2654.8	-1.3837112
2653.8	-1.3804120
2652.9	-1.3765746
2651.9	-1.3721616
2651.0	-1.3670957
2650.0	-1.3616340
2649.0	-1.3561347
2648.1	-1.3507777
2647.1	-1.3456926
2646.1	-1.3411089
2645.2	-1.3372146
2644.2	-1.3340483
2643.2	-1.3315502
2642.3	-1.3296797
2641.3	-1.3285463
2640.3	-1.3282980
2639.4	-1.3289374
2638.4	-1.3303884
2637.5	-1.3326027
2636.5	-1.3355582
2635.5	-1.3392252
2634.6	-1.3434055
2633.6	-1.3477340
2632.6	-1.3520620
2631.7	-1.3564935
2630.7	-1.3610348
2629.7	-1.3655416
2628.8	-1.3698745
2627.8	-1.3740299
2626.8	-1.3781152
2625.9	-1.3821267
2624.9	-1.3859451
2624.0	-1.3895519
2623.0	-1.3930516
2622.0	-1.3965038
2621.1	-1.3998653
2620.1	-1.4030945
2619.1	-1.4062326
2618.2	-1.4093506
2617.2	-1.4124413
2616.2	-1.4154309
2615.3	-1.4182701
2614.3	-1.4209658
2613.3	-1.4235193
2612.4	-1.4258705
2611.4	-1.4280636
2610.5	-1.4302746
2609.5	-1.4325149
2608.5	-1.4346471
2607.6	-1.4366243
2606.6	-1.4384831
2605.6	-1.4402776
2604.7	-1.4420415
2603.7	-1.4437448
2602.7	-1.4453496
2601.8	-1.4468967
2600.8	-1.4484578
2599.8	-1.4499912
2598.9	-1.4513718
2597.9	-1.4525949
2597.0	-1.4537442
2596.0	-1.4548007
2595.0	-1.4557375
2594.1	-1.4566106
2593.1	-1.4573764
2592.1	-1.4578352
2591.2	-1.4577668
2590.2	-1.4570643
2589.2	-1.4558156
2588.3	-1.4541503
2587.3	-1.4520446
2586.3	-1.4494280
2585.4	-1.4463379
2584.4	-1.4428239
2583.5	-1.4388729
2582.5	-1.4345690
2581.5	-1.4301276
2580.6	-1.4256676
2579.6	-1.4211479
2578.6	-1.4165715
2577.7	-1.4120667
2576.7	-1.4077570
2575.7	-1.4037217
2574.8	-1.4000126
2573.8	-1.3966285
2572.8	-1.3935874
2571.9	-1.3909835
2570.9	-1.3888857
2570.0	-1.3872038
2569.0	-1.3858033
2568.0	-1.3847498
2567.1	-1.3841419
2566.1	-1.3838809
2565.1	-1.3838750
2564.2	-1.3841588
2563.2	-1.3847468
2562.2	-1.3856146
2561.3	-1.3867126
2560.3	-1.3879784
2559.3	-1.3894452
2558.4	-1.3911785
2557.4	-1.3930888
2556.4	-1.3950707
2555.5	-1.3971984
2554.5	-1.3994462
2553.6	-1.4016387
2552.6	-1.4038169
2551.6	-1.4061100
2550.7	-1.4085035
2549.7	-1.4109350
2548.7	-1.4133698
2547.8	-1.4158025
2546.8	-1.4182309
2545.8	-1.4207015
2544.9	-1.4231919
2543.9	-1.4255512
2542.9	-1.4277655
2542.0	-1.4299285
2541.0	-1.4320570
2540.1	-1.4341414
2539.1	-1.4361801
2538.1	-1.4381095
2537.2	-1.4398383
2536.2	-1.4414583
2535.2	-1.4431262
2534.3	-1.4447591
2533.3	-1.4462250
2532.3	-1.4475707
2531.4	-1.4488959
2530.4	-1.4502592
2529.4	-1.4516635
2528.5	-1.4529992
2527.5	-1.4541509
2526.6	-1.4551876
2525.6	-1.4562389
2524.6	-1.4573002
2523.7	-1.4583299
2522.7	-1.4593381
2521.7	-1.4603534
2520.8	-1.4613578
2519.8	-1.4622552
2518.8	-1.4630178
2517.9	-1.4637498
2516.9	-1.4645387
2515.9	-1.4653298
2515.0	-1.4660429
2514.0	-1.4667143
2513.1	-1.4673643
2512.1	-1.4679804
2511.1	-1.4686066
2510.2	-1.4692314
2509.2	-1.4698449
2508.2	-1.4705055
2507.3	-1.4711640
2506.3	-1.4717237
2505.3	-1.4722049
2504.4	-1.4726503
2503.4	-1.4730625
2502.4	-1.4734484
2501.5	-1.4738356
2500.5	-1.4742433
2499.6	-1.4745990
2498.6	-1.4748303
2497.6	-1.4749738
2496.7	-1.4750961
2495.7	-1.4752554
2494.7	-1.4754279
2493.8	-1.4755592
2492.8	-1.4757155
2491.8	-1.4758877
2490.9	-1.4759524
2489.9	-1.4759570
2488.9	-1.4760518
2488.0	-1.4762702
2487.0	-1.4765221
2486.1	-1.4766831
2485.1	-1.4767668
2484.1	-1.4769317
2483.2	-1.4772004
2482.2	-1.4774129
2481.2	-1.4775305
2480.3	-1.4776769
2479.3	-1.4778908
2478.3	-1.4781036
2477.4	-1.4782451
2476.4	-1.4783351
2475.4	-1.4784845
2474.5	-1.4786502
2473.5	-1.4786946
2472.6	-1.4787184
2471.6	-1.4789089
2470.6	-1.4791985
2469.7	-1.4793892
2468.7	-1.4794815
2467.7	-1.4796129
2466.8	-1.4798042
2465.8	-1.4800227
2464.8	-1.4802988
2463.9	-1.4805862
2462.9	-1.4807694
2461.9	-1.4808767
2461.0	-1.4810014
2460.0	-1.4811332
2459.1	-1.4812044
2458.1	-1.4812075
2457.1	-1.4812530
2456.2	-1.4813719
2455.2	-1.4814885
2454.2	-1.4816407
2453.3	-1.4818263
2452.3	-1.4819224
2451.3	-1.4819669
2450.4	-1.4820948
2449.4	-1.4822396
2448.4	-1.4822695
2447.5	-1.4822884
2446.5	-1.4824530
2445.6	-1.4826648
2444.6	-1.4827639
2443.6	-1.4827803
2442.7	-1.4828140
2441.7	-1.4829104
2440.7	-1.4830583
2439.8	-1.4832125
2438.8	-1.4833355
2437.8	-1.4834216
2436.9	-1.4835399
2435.9	-1.4837313
2434.9	-1.4838945
2434.0	-1.4839779
2433.0	-1.4840794
2432.1	-1.4842486
2431.1	-1.4844252
2430.1	-1.4845803
2429.2	-1.4847653
2428.2	-1.4849993
2427.2	-1.4852165
2426.3	-1.4854323
2425.3	-1.4857095
2424.3	-1.4859461
2423.4	-1.4861034
2422.4	-1.4863127
2421.4	-1.4865569
2420.5	-1.4867183
2419.5	-1.4868047
2418.5	-1.4868846
2417.6	-1.4870044
2416.6	-1.4871800
2415.7	-1.4873426
2414.7	-1.4873885
2413.7	-1.4873433
2412.8	-1.4873500
2411.8	-1.4874811
2410.8	-1.4876623
2409.9	-1.4877903
2408.9	-1.4878626
2407.9	-1.4879799
2407.0	-1.4881845
2406.0	-1.4883791
2405.0	-1.4884989
2404.1	-1.4886022
2403.1	-1.4887786
2402.2	-1.4890021
2401.2	-1.4891602
2400.2	-1.4892859
2399.3	-1.4894865
2398.3	-1.4896964
2397.3	-1.4898070
2396.4	-1.4899014
2395.4	-1.4900931
2394.4	-1.4902968
2393.5	-1.4904325
2392.5	-1.4905709
2391.5	-1.4907399
2390.6	-1.4908719
2389.6	-1.4909126
2388.7	-1.4908706
2387.7	-1.4908100
2386.7	-1.4908094
2385.8	-1.4908924
2384.8	-1.4909738
2383.8	-1.4909955
2382.9	-1.4910203
2381.9	-1.4910520
2380.9	-1.4910454
2380.0	-1.4910866
2379.0	-1.4912059
2378.0	-1.4912146
2377.1	-1.4910545
2376.1	-1.4909284
2375.2	-1.4909195
2374.2	-1.4909544
2373.2	-1.4910289
2372.3	-1.4911424
2371.3	-1.4912252
2370.3	-1.4912337
2369.4	-1.4912068
2368.4	-1.4912344
2367.4	-1.4913882
2366.5	-1.4916412
2365.5	-1.4919237
2364.5	-1.4921955
2363.6	-1.4924002
2362.6	-1.4926004
2361.7	-1.4929366
2360.7	-1.4933369
2359.7	-1.4936585
2358.8	-1.4939208
2357.8	-1.4942050
2356.8	-1.4945688
2355.9	-1.4950125
2354.9	-1.4954584
2353.9	-1.4958575
2353.0	-1.4962524
2352.0	-1.4966782
2351.0	-1.4970766
2350.1	-1.4973198
2349.1	-1.4973383
2348.2	-1.4972399
2347.2	-1.4971696
2346.2	-1.4970737
2345.3	-1.4968740
2344.3	-1.4967269
2343.3	-1.4967244
2342.4	-1.4966713
2341.4	-1.4965019
2340.4	-1.4964265
2339.5	-1.4964807
2338.5	-1.4964942
2337.5	-1.4964468
2336.6	-1.4964371
2335.6	-1.4965044
2334.7	-1.4965410
2333.7	-1.4964310
2332.7	-1.4962895
2331.8	-1.4962165
2330.8	-1.4961389
2329.8	-1.4960412
2328.9	-1.4959582
2327.9	-1.4958799
2326.9	-1.4957759
2326.0	-1.4956418
2325.0	-1.4954833
2324.0	-1.4952604
2323.1	-1.4949706
2322.1	-1.4946762
2321.2	-1.4944071
2320.2	-1.4941903
2319.2	-1.4940273
2318.3	-1.4938012
2317.3	-1.4934295
2316.3	-1.4929807
2315.4	-1.4925493
2314.4	-1.4921755
2313.4	-1.4918467
2312.5	-1.4915450
2311.5	-1.4912671
2310.5	-1.4909759
2309.6	-1.4906485
2308.6	-1.4903231
2307.7	-1.4900608
2306.7	-1.4899107
2305.7	-1.4898837
2304.8	-1.4899492
2303.8	-1.4900372
2302.8	-1.4901255
2301.9	-1.4902704
2300.9	-1.4904473
2299.9	-1.4906102
2299.0	-1.4908216
2298.0	-1.4911327
2297.0	-1.4915435
2296.1	-1.4920200
2295.1	-1.4924986
2294.2	-1.4929744
2293.2	-1.4934651
2292.2	-1.4939551
2291.3	-1.4944507
2290.3	-1.4949635
2289.3	-1.4954777
2288.4	-1.4959837
2287.4	-1.4964689
2286.4	-1.4969136
2285.5	-1.4973259
2284.5	-1.4976873
2283.5	-1.4979922
2282.6	-1.4983333
2281.6	-1.4987137
2280.7	-1.4990128
2279.7	-1.4992257
2278.7	-1.4994351
2277.8	-1.4997004
2276.8	-1.5000420
2275.8	-1.5003641
2274.9	-1.5005189
2273.9	-1.5004885
2272.9	-1.5003821
2272.0	-1.5002760
2271.0	-1.5001589
2270.0	-1.4999896
2269.1	-1.4997470
2268.1	-1.4994246
2267.1	-1.4989822
2266.2	-1.4984653
2265.2	-1.4980221
2264.3	-1.4976212
2263.3	-1.4970487
2262.3	-1.4962367
2261.4	-1.4953620
2260.4	-1.4946030
2259.4	-1.4940262
2258.5	-1.4936360
2257.5	-1.4933031
2256.5	-1.4929850
2255.6	-1.4928496
2254.6	-1.4929001
2253.6	-1.4929945
2252.7	-1.4931015
2251.7	-1.4933043
2250.8	-1.4937403
2249.8	-1.4943819
2248.8	-1.4950311
2247.9	-1.4956198
2246.9	-1.4962335
2245.9	-1.4969840
2245.0	-1.4978825
2244.0	-1.4988008
2243.0	-1.4996024
2242.1	-1.5001935
2241.1	-1.5006433
2240.1	-1.5011692
2239.2	-1.5018058
2238.2	-1.5024295
2237.3	-1.5029672
2236.3	-1.5033599
2235.3	-1.5036296
2234.4	-1.5039212
2233.4	-1.5042510
2232.4	-1.5044836
2231.5	-1.5046366
2230.5	-1.5048609
2229.5	-1.5051686
2228.6	-1.5053791
2227.6	-1.5053910
2226.6	-1.5054030
2225.7	-1.5055954
2224.7	-1.5058002
2223.8	-1.5057911
2222.8	-1.5056857
2221.8	-1.5057567
2220.9	-1.5059668
2219.9	-1.5061053
2218.9	-1.5061609
2218.0	-1.5062234
2217.0	-1.5062736
2216.0	-1.5062615
2215.1	-1.5062531
2214.1	-1.5062888
2213.1	-1.5063149
2212.2	-1.5063707
2211.2	-1.5064631
2210.3	-1.5064750
2209.3	-1.5064334
2208.3	-1.5064318
2207.4	-1.5064032
2206.4	-1.5063053
2205.4	-1.5062497
2204.5	-1.5062685
2203.5	-1.5062571
2202.5	-1.5061839
2201.6	-1.5060579
2200.6	-1.5058317
2199.6	-1.5054991
2198.7	-1.5051488
2197.7	-1.5048926
2196.8	-1.5047363
2195.8	-1.5045636
2194.8	-1.5042731
2193.9	-1.5039086
2192.9	-1.5035486
2191.9	-1.5031580
2191.0	-1.5026885
2190.0	-1.5021346
2189.0	-1.5015590
2188.1	-1.5010417
2187.1	-1.5005056
2186.1	-1.4998244
2185.2	-1.4990119
2184.2	-1.4982424
2183.3	-1.4976112
2182.3	-1.4969772
2181.3	-1.4962747
2180.4	-1.4955997
2179.4	-1.4949687
2178.4	-1.4943370
2177.5	-1.4937326
2176.5	-1.4932257
2175.5	-1.4928405
2174.6	-1.4925183
2173.6	-1.4921808
2172.6	-1.4918896
2171.7	-1.4917216
2170.7	-1.4915648
2169.8	-1.4913528
2168.8	-1.4911891
2167.8	-1.4910967
2166.9	-1.4910110
2165.9	-1.4909819
2164.9	-1.4910492
2164.0	-1.4911554
2163.0	-1.4913331
2162.0	-1.4915954
2161.1	-1.4918445
2160.1	-1.4920913
2159.1	-1.4924666
2158.2	-1.4929911
2157.2	-1.4935025
2156.3	-1.4939380
2155.3	-1.4944738
2154.3	-1.4952142
2153.4	-1.4960526
2152.4	-1.4968747
2151.4	-1.4976279
2150.5	-1.4983146
2149.5	-1.4989835
2148.5	-1.4996359
2147.6	-1.5002688
2146.6	-1.5008714
2145.6	-1.5013828
2144.7	-1.5018367
2143.7	-1.5023257
2142.8	-1.5028721
2141.8	-1.5033934
2140.8	-1.5037756
2139.9	-1.5040718
2138.9	-1.5044198
2137.9	-1.5048302
2137.0	-1.5052035
2136.0	-1.5054482
2135.0	-1.5056038
2134.1	-1.5057945
2133.1	-1.5060372
2132.1	-1.5062445
2131.2	-1.5064142
2130.2	-1.5066030
2129.2	-1.5067897
2128.3	-1.5069599
2127.3	-1.5071145
2126.4	-1.5071719
2125.4	-1.5071757
2124.4	-1.5073444
2123.5	-1.5076473
2122.5	-1.5078359
2121.5	-1.5078690
2120.6	-1.5078833
2119.6	-1.5079511
2118.6	-1.5079885
2117.7	-1.5079561
2116.7	-1.5080265
2115.7	-1.5082636
2114.8	-1.5084606
2113.8	-1.5084591
2112.9	-1.5083615
2111.9	-1.5083628
2110.9	-1.5084852
2110.0	-1.5085516
2109.0	-1.5084666
2108.0	-1.5083766
2107.1	-1.5083923
2106.1	-1.5084484
2105.1	-1.5084811
2104.2	-1.5085124
2103.2	-1.5085924
2102.2	-1.5086825
2101.3	-1.5087199
2100.3	-1.5087287
2099.4	-1.5087135
2098.4	-1.5086538
2097.4	-1.5085715
2096.5	-1.5085013
2095.5	-1.5084940
2094.5	-1.5085387
2093.6	-1.5085378
2092.6	-1.5084686
2091.6	-1.5084023
2090.7	-1.5084027
2089.7	-1.5084629
2088.7	-1.5085315
2087.8	-1.5085787
2086.8	-1.5085554
2085.9	-1.5084623
2084.9	-1.5083970
2083.9	-1.5084128
2083.0	-1.5084736
2082.0	-1.5085222
2081.0	-1.5085340
2080.1	-1.5084800
2079.1	-1.5083960
2078.1	-1.5083857
2077.2	-1.5083815
2076.2	-1.5082806
2075.2	-1.5081931
2074.3	-1.5082135
2073.3	-1.5082369
2072.4	-1.5081540
2071.4	-1.5079924
2070.4	-1.5078034
2069.5	-1.5076456
2068.5	-1.5075911
2067.5	-1.5076164
2066.6	-1.5076575
2065.6	-1.5076959
2064.6	-1.5077004
2063.7	-1.5076430
2062.7	-1.5075363
2061.7	-1.5073882
2060.8	-1.5072361
2059.8	-1.5071561
2058.9	-1.5071331
2057.9	-1.5070832
2056.9	-1.5070006
2056.0	-1.5069071
2055.0	-1.5067726
2054.0	-1.5065970
2053.1	-1.5064238
2052.1	-1.5062702
2051.1	-1.5061396
2050.2	-1.5060208
2049.2	-1.5058868
2048.2	-1.5057690
2047.3	-1.5057167
2046.3	-1.5057080
2045.4	-1.5057296
2044.4	-1.5058345
2043.4	-1.5060022
2042.5	-1.5060848
2041.5	-1.5060923
2040.5	-1.5062373
2039.6	-1.5064806
2038.6	-1.5066216
2037.6	-1.5067471
2036.7	-1.5069832
2035.7	-1.5072612
2034.7	-1.5075237
2033.8	-1.5077108
2032.8	-1.5077876
2031.9	-1.5078682
2030.9	-1.5079948
2029.9	-1.5081791
2029.0	-1.5085735
2028.0	-1.5090909
2027.0	-1.5094342
2026.1	-1.5095518
2025.1	-1.5095606
2024.1	-1.5095774
2023.2	-1.5096741
2022.2	-1.5098161
2021.2	-1.5099533
2020.3	-1.5101364
2019.3	-1.5103840
2018.4	-1.5105400
2017.4	-1.5105426
2016.4	-1.5105313
2015.5	-1.5105771
2014.5	-1.5106701
2013.5	-1.5108007
2012.6	-1.5109186
2011.6	-1.5110023
2010.6	-1.5111055
2009.7	-1.5112145
2008.7	-1.5112623
2007.7	-1.5112799
2006.8	-1.5112637
2005.8	-1.5111394
2004.9	-1.5109738
2003.9	-1.5109078
2002.9	-1.5109606
2002.0	-1.5110357
2001.0	-1.5110216
2000.0	-1.5109220
1999.1	-1.5108507
1998.1	-1.5108334
1997.1	-1.5107865
1996.2	-1.5106906
1995.2	-1.5106094
1994.2	-1.5105107
1993.3	-1.5102985
1992.3	-1.5101079
1991.3	-1.5100785
1990.4	-1.5100275
1989.4	-1.5098656
1988.5	-1.5097170
1987.5	-1.5095482
1986.5	-1.5093465
1985.6	-1.5092514
1984.6	-1.5091896
1983.6	-1.5089537
1982.7	-1.5086064
1981.7	-1.5083648
1980.7	-1.5082397
1979.8	-1.5080522
1978.8	-1.5077280
1977.8	-1.5074395
1976.9	-1.5073428
1975.9	-1.5073087
1975.0	-1.5071594
1974.0	-1.5069308
1973.0	-1.5067136
1972.1	-1.5065007
1971.1	-1.5062782
1970.1	-1.5060515
1969.2	-1.5057851
1968.2	-1.5055013
1967.2	-1.5053173
1966.3	-1.5052580
1965.3	-1.5051919
1964.3	-1.5050491
1963.4	-1.5048701
1962.4	-1.5046571
1961.5	-1.5043863
1960.5	-1.5041062
1959.5	-1.5041417
1958.6	-1.5046021
1957.6	-1.5048091
1956.6	-1.5044430
1955.7	-1.5040284
1954.7	-1.5038483
1953.7	-1.5037537
1952.8	-1.5036168
1951.8	-1.5034541
1950.8	-1.5033520
1949.9	-1.5033565
1948.9	-1.5033897
1948.0	-1.5033451
1947.0	-1.5032735
1946.0	-1.5032363
1945.1	-1.5031533
1944.1	-1.5029485
1943.1	-1.5028069
1942.2	-1.5029678
1941.2	-1.5031960
1940.2	-1.5032277
1939.3	-1.5032556
1938.3	-1.5033628
1937.3	-1.5034019
1936.4	-1.5034106
1935.4	-1.5034946
1934.5	-1.5036116
1933.5	-1.5036674
1932.5	-1.5036706
1931.6	-1.5036889
1930.6	-1.5036895
1929.6	-1.5036334
1928.7	-1.5035807
1927.7	-1.5035540
1926.7	-1.5035102
1925.8	-1.5034158
1924.8	-1.5031996
1923.8	-1.5029107
1922.9	-1.5027921
1921.9	-1.5027963
1921.0	-1.5025889
1920.0	-1.5019755
1919.0	-1.5011774
1918.1	-1.5008496
1917.1	-1.5010111
1916.1	-1.5009536
1915.2	-1.5006078
1914.2	-1.5002427
1913.2	-1.4998184
1912.3	-1.4994384
1911.3	-1.4991764
1910.3	-1.4988713
1909.4	-1.4985633
1908.4	-1.4983392
1907.5	-1.4980487
1906.5	-1.4977496
1905.5	-1.4976237
1904.6	-1.4974606
1903.6	-1.4971517
1902.6	-1.4969926
1901.7	-1.4969739
1900.7	-1.4968975
1899.7	-1.4969239
1898.8	-1.4971156
1897.8	-1.4972973
1896.8	-1.4974802
1895.9	-1.4976716
1894.9	-1.4977725
1894.0	-1.4979287
1893.0	-1.4983259
1892.0	-1.4986987
1891.1	-1.4987797
1890.1	-1.4989308
1889.1	-1.4994410
1888.2	-1.4999238
1887.2	-1.5001363
1886.2	-1.5002724
1885.3	-1.5003905
1884.3	-1.5004640
1883.3	-1.5005409
1882.4	-1.5005621
1881.4	-1.5004231
1880.5	-1.5001847
1879.5	-1.4999905
1878.5	-1.4998151
1877.6	-1.4995190
1876.6	-1.4991477
1875.6	-1.4989346
1874.7	-1.4989181
1873.7	-1.4988520
1872.7	-1.4986174
1871.8	-1.4982356
1870.8	-1.4976249
1869.8	-1.4970694
1868.9	-1.4970967
1867.9	-1.4975084
1867.0	-1.4978212
1866.0	-1.4979864
1865.0	-1.4980630
1864.1	-1.4981866
1863.1	-1.4984338
1862.1	-1.4986093
1861.2	-1.4986475
1860.2	-1.4987332
1859.2	-1.4989324
1858.3	-1.4990791
1857.3	-1.4991084
1856.3	-1.4991856
1855.4	-1.4993162
1854.4	-1.4993209
1853.5	-1.4992460
1852.5	-1.4992114
1851.5	-1.4991366
1850.6	-1.4989737
1849.6	-1.4988064
1848.6	-1.4986228
1847.7	-1.4983182
1846.7	-1.4977210
1845.7	-1.4966307
1844.8	-1.4956956
1843.8	-1.4957980
1842.8	-1.4961592
1841.9	-1.4958687
1840.9	-1.4952888
1839.9	-1.4946458
1839.0	-1.4938914
1838.0	-1.4931216
1837.1	-1.4923636
1836.1	-1.4916018
1835.1	-1.4908030
1834.2	-1.4900167
1833.2	-1.4892856
1832.2	-1.4883155
1831.3	-1.4868809
1830.3	-1.4856200
1829.3	-1.4850531
1828.4	-1.4844998
1827.4	-1.4832969
1826.4	-1.4816334
1825.5	-1.4801689
1824.5	-1.4791861
1823.6	-1.4780532
1822.6	-1.4763675
1821.6	-1.4744518
1820.7	-1.4724234
1819.7	-1.4700096
1818.7	-1.4669960
1817.8	-1.4634347
1816.8	-1.4594386
1815.8	-1.4549326
1814.9	-1.4497426
1813.9	-1.4437854
1812.9	-1.4370720
1812.0	-1.4295824
1811.0	-1.4213917
1810.1	-1.4127520
1809.1	-1.4038770
1808.1	-1.3948998
1807.2	-1.3861475
1806.2	-1.3782763
1805.2	-1.3718089
1804.3	-1.3665748
1803.3	-1.3620799
1802.3	-1.3582058
1801.4	-1.3547471
1800.4	-1.3513005
1799.4	-1.3478123
1798.5	-1.3436224
1797.5	-1.3375925
1796.6	-1.3302139
1795.6	-1.3242408
1794.6	-1.3233473
1793.7	-1.3291758
1792.7	-1.3364792
1791.7	-1.3350550
1790.8	-1.3230140
1789.8	-1.3088056
1788.8	-1.2966716
1787.9	-1.2840885
1786.9	-1.2701157
1785.9	-1.2557887
1785.0	-1.2427396
1784.0	-1.2324594
1783.1	-1.2247114
1782.1	-1.2187614
1781.1	-1.2149818
1780.2	-1.2140317
1779.2	-1.2155168
1778.2	-1.2185912
1777.3	-1.2228407
1776.3	-1.2281811
1775.3	-1.2344252
1774.4	-1.2410804
1773.4	-1.2487535
1772.4	-1.2587271
1771.5	-1.2701442
1770.5	-1.2807883
1769.6	-1.2896578
1768.6	-1.2975801
1767.6	-1.3055187
1766.7	-1.3124485
1765.7	-1.3172635
1764.7	-1.3203171
1763.8	-1.3216004
1762.8	-1.3208297
1761.8	-1.3185103
1760.9	-1.3145584
1759.9	-1.3078616
1758.9	-1.2979869
1758.0	-1.2851225
1757.0	-1.2694228
1756.1	-1.2507260
1755.1	-1.2280372
1754.1	-1.2004278
1753.2	-1.1672684
1752.2	-1.1280338
1751.2	-1.0827891
1750.3	-1.0311092
1749.3	-0.9715681
1748.3	-0.9035586
1747.4	-0.8278909
1746.4	-0.7453913
1745.4	-0.6573588
1744.5	-0.5664269
1743.5	-0.4759972
1742.6	-0.3898874
1741.6	-0.3093631
1740.6	-0.2315318
1739.7	-0.1497236
1738.7	-0.0552282
1737.7	0.0593551
1736.8	0.1950756
1735.8	0.3374848
1734.8	0.4549941
1733.9	0.5003408
1732.9	0.4639477
1731.9	0.3980845
1731.0	0.3385098
1730.0	0.2897003
1729.1	0.2538968
1728.1	0.2322300
1727.1	0.2035088
1726.2	0.1409058
1725.2	0.0353136
1724.2	-0.1029622
1723.3	-0.2551936
1722.3	-0.4060870
1721.3	-0.5453310
1720.4	-0.6680796
1719.4	-0.7729556
1718.4	-0.8632097
1717.5	-0.9430046
1716.5	-1.0117927
1715.6	-1.0698360
1714.6	-1.1209145
1713.6	-1.1669210
1712.7	-1.2078588
1711.7	-1.2445201
1710.7	-1.2775769
1709.8	-1.3071605
1708.8	-1.3330497
1707.8	-1.3552688
1706.9	-1.3746369
1705.9	-1.3916986
1704.9	-1.4065454
1704.0	-1.4194232
1703.0	-1.4299890
1702.0	-1.4373606
1701.1	-1.4432793
1700.1	-1.4512478
1699.2	-1.4600581
1698.2	-1.4655052
1697.2	-1.4675685
1696.3	-1.4702731
1695.3	-1.4755970
1694.3	-1.4804602
1693.4	-1.4829189
1692.4	-1.4844402
1691.4	-1.4859788
1690.5	-1.4875289
1689.5	-1.4889054
1688.5	-1.4899740
1687.6	-1.4907284
1686.6	-1.4903272
1685.7	-1.4891169
1684.7	-1.4898134
1683.7	-1.4926060
1682.8	-1.4947449
1681.8	-1.4954400
1680.8	-1.4956069
1679.9	-1.4960079
1678.9	-1.4966873
1677.9	-1.4970715
1677.0	-1.4965900
1676.0	-1.4959501
1675.0	-1.4968449
1674.1	-1.4984919
1673.1	-1.4989152
1672.2	-1.4985887
1671.2	-1.4983042
1670.2	-1.4979677
1669.3	-1.4983795
1668.3	-1.4997740
1667.3	-1.5008156
1666.4	-1.5011469
1665.4	-1.5012567
1664.4	-1.5010098
1663.5	-1.5006959
1662.5	-1.5012243
1661.5	-1.5023624
1660.6	-1.5031056
1659.6	-1.5034682
1658.7	-1.5037757
1657.7	-1.5040683
1656.7	-1.5041965
1655.8	-1.5034159
1654.8	-1.5012145
1653.8	-1.4993299
1652.9	-1.5010995
1651.9	-1.5054283
1650.9	-1.5077235
1650.0	-1.5074694
1649.0	-1.5067638
1648.0	-1.5063142
1647.1	-1.5061306
1646.1	-1.5070506
1645.2	-1.5090011
1644.2	-1.5102369
1643.2	-1.5104530
1642.3	-1.5105959
1641.3	-1.5108621
1640.3	-1.5111248
1639.4	-1.5112500
1638.4	-1.5111063
1637.4	-1.5103766
1636.5	-1.5093302
1635.5	-1.5098290
1634.5	-1.5119723
1633.6	-1.5132495
1632.6	-1.5132976
1631.7	-1.5133557
1630.7	-1.5135661
1629.7	-1.5135795
1628.8	-1.5134424
1627.8	-1.5137192
1626.8	-1.5144024
1625.9	-1.5146363
1624.9	-1.5141149
1623.9	-1.5138589
1623.0	-1.5146778
1622.0	-1.5156828
1621.0	-1.5160547
1620.1	-1.5161381
1619.1	-1.5159154
1618.2	-1.5147353
1617.2	-1.5139325
1616.2	-1.5154490
1615.3	-1.5174066
1614.3	-1.5177932
1613.3	-1.5176079
1612.4	-1.5176682
1611.4	-1.5177549
1610.4	-1.5177201
1609.5	-1.5177101
1608.5	-1.5177987
1607.5	-1.5178233
1606.6	-1.5177351
1605.6	-1.5176264
1604.7	-1.5175487
1603.7	-1.5174589
1602.7	-1.5172933
1601.8	-1.5171129
1600.8	-1.5170467
1599.8	-1.5170432
1598.9	-1.5170081
1597.9	-1.5169214
1596.9	-1.5167620
1596.0	-1.5165592
1595.0	-1.5163634
1594.0	-1.5162370
1593.1	-1.5161338
1592.1	-1.5159315
1591.2	-1.5156562
1590.2	-1.5155166
1589.2	-1.5155888
1588.3	-1.5156838
1587.3	-1.5157083
1586.3	-1.5157056
1585.4	-1.5157545
1584.4	-1.5158470
1583.4	-1.5158582
1582.5	-1.5157741
1581.5	-1.5157340
1580.5	-1.5158165
1579.6	-1.5159230
1578.6	-1.5154967
1577.7	-1.5139124
1576.7	-1.5128397
1575.7	-1.5143390
1574.8	-1.5162739
1573.8	-1.5164165
1572.8	-1.5158305
1571.9	-1.5151083
1570.9	-1.5138358
1569.9	-1.5128839
1569.0	-1.5130271
1568.0	-1.5132672
1567.0	-1.5129004
1566.1	-1.5125155
1565.1	-1.5127188
1564.1	-1.5134702
1563.2	-1.5140437
1562.2	-1.5133972
1561.3	-1.5114435
1560.3	-1.5098697
1559.3	-1.5098679
1558.4	-1.5110976
1557.4	-1.5129539
1556.4	-1.5137209
1555.5	-1.5126582
1554.5	-1.5119009
1553.5	-1.5126040
1552.6	-1.5132802
1551.6	-1.5130259
1550.6	-1.5125854
1549.7	-1.5126116
1548.7	-1.5128105
1547.8	-1.5126340
1546.8	-1.5118833
1545.8	-1.5109577
1544.9	-1.5103722
1543.9	-1.5094361
1542.9	-1.5077091
1542.0	-1.5062103
1541.0	-1.5047748
1540.0	-1.5034165
1539.1	-1.5039623
1538.1	-1.5055652
1537.1	-1.5056440
1536.2	-1.5042030
1535.2	-1.5022001
1534.3	-1.5003207
1533.3	-1.4992970
1532.3	-1.4985878
1531.4	-1.4971571
1530.4	-1.4950047
1529.4	-1.4923793
1528.5	-1.4896595
1527.5	-1.4870758
1526.5	-1.4844546
1525.6	-1.4822099
1524.6	-1.4803101
1523.6	-1.4776213
1522.7	-1.4740440
1521.7	-1.4712471
1520.8	-1.4703934
1519.8	-1.4701571
1518.8	-1.4687957
1517.9	-1.4670200
1516.9	-1.4663610
1515.9	-1.4665319
1515.0	-1.4667751
1514.0	-1.4669648
1513.0	-1.4671863
1512.1	-1.4679341
1511.1	-1.4690512
1510.1	-1.4699051
1509.2	-1.4703400
1508.2	-1.4703486
1507.3	-1.4708056
1506.3	-1.4730507
1505.3	-1.4766861
1504.4	-1.4797581
1503.4	-1.4813193
1502.4	-1.4822211
1501.5	-1.4832610
1500.5	-1.4840646
1499.5	-1.4845666
1498.6	-1.4853313
1497.6	-1.4859678
1496.6	-1.4866071
1495.7	-1.4881471
1494.7	-1.4896214
1493.8	-1.4901284
1492.8	-1.4902622
1491.8	-1.4901948
1490.9	-1.4900961
1489.9	-1.4904770
1488.9	-1.4909657
1488.0	-1.4911399
1487.0	-1.4915128
1486.0	-1.4921514
1485.1	-1.4925122
1484.1	-1.4926430
1483.1	-1.4927976
1482.2	-1.4929832
1481.2	-1.4932414
1480.3	-1.4935954
1479.3	-1.4938906
1478.3	-1.4938058
1477.4	-1.4933724
1476.4	-1.4933298
1475.4	-1.4936036
1474.5	-1.4931663
1473.5	-1.4923942
1472.5	-1.4925029
1471.6	-1.4934423
1470.6	-1.4941378
1469.6	-1.4939859
1468.7	-1.4934499
1467.7	-1.4928575
1466.8	-1.4918610
1465.8	-1.4905881
1464.8	-1.4898701
1463.9	-1.4896472
1462.9	-1.4889436
1461.9	-1.4874896
1461.0	-1.4852567
1460.0	-1.4822247
1459.0	-1.4785615
1458.1	-1.4743841
1457.1	-1.4709245
1456.1	-1.4688746
1455.2	-1.4663256
1454.2	-1.4620618
1453.3	-1.4568025
1452.3	-1.4510958
1451.3	-1.4450226
1450.4	-1.4382926
1449.4	-1.4303801
1448.4	-1.4213797
1447.5	-1.4115947
1446.5	-1.4006022
1445.5	-1.3878305
1444.6	-1.3733417
1443.6	-1.3573263
1442.6	-1.3397247
1441.7	-1.3205191
1440.7	-1.2999806
1439.8	-1.2783680
1438.8	-1.2551277
1437.8	-1.2301811
1436.9	-1.2053429
1435.9	-1.1815076
1434.9	-1.1570073
1434.0	-1.1310505
1433.0	-1.1048449
1432.0	-1.0795609
1431.1	-1.0563262
1430.1	-1.0367051
1429.1	-1.0218991
1428.2	-1.0121632
1427.2	-1.0071868
1426.3	-1.0066024
1425.3	-1.0096657
1424.3	-1.0157268
1423.4	-1.0244681
1422.4	-1.0354619
1421.4	-1.0481508
1420.5	-1.0629184
1419.5	-1.0816407
1418.5	-1.1043234
1417.6	-1.1287639
1416.6	-1.1540804
1415.6	-1.1800531
1414.7	-1.2059540
1413.7	-1.2311648
1412.7	-1.2552968
1411.8	-1.2779887
1410.8	-1.2988856
1409.9	-1.3178370
1408.9	-1.3349550
1407.9	-1.3503990
1407.0	-1.3640846
1406.0	-1.3760082
1405.0	-1.3866365
1404.1	-1.3962322
1403.1	-1.4045767
1402.1	-1.4117711
1401.2	-1.4180663
1400.2	-1.4236484
1399.2	-1.4290828
1398.3	-1.4345148
1397.3	-1.4393932
1396.4	-1.4435008
1395.4	-1.4473630
1394.4	-1.4516153
1393.5	-1.4559511
1392.5	-1.4596412
1391.5	-1.4627203
1390.6	-1.4653798
1389.6	-1.4673225
1388.6	-1.4686003
1387.7	-1.4699322
1386.7	-1.4714363
1385.7	-1.4720986
1384.8	-1.4722673
1383.8	-1.4745265
1382.9	-1.4788755
1381.9	-1.4820848
1380.9	-1.4831551
1380.0	-1.4834503
1379.0	-1.4837917
1378.0	-1.4842354
1377.1	-1.4845858
1376.1	-1.4847095
1375.1	-1.4846308
1374.2	-1.4844825
1373.2	-1.4841967
1372.2	-1.4833807
1371.3	-1.4817011
1370.3	-1.4789937
1369.4	-1.4754406
1368.4	-1.4716929
1367.4	-1.4685609
1366.5	-1.4667186
1365.5	-1.4662783
1364.5	-1.4666960
1363.6	-1.4676242
1362.6	-1.4690024
1361.6	-1.4704345
1360.7	-1.4716607
1359.7	-1.4728061
1358.7	-1.4741491
1357.8	-1.4761860
1356.8	-1.4791522
1355.9	-1.4827667
1354.9	-1.4867288
1353.9	-1.4908369
1353.0	-1.4947473
1352.0	-1.4981246
1351.0	-1.5009530
1350.1	-1.5034658
1349.1	-1.5058056
1348.1	-1.5078362
1347.2	-1.5093899
1346.2	-1.5105915
1345.2	-1.5117222
1344.3	-1.5128456
1343.3	-1.5137931
1342.4	-1.5144806
1341.4	-1.5150285
1340.4	-1.5155252
1339.5	-1.5159246
1338.5	-1.5162442
1337.5	-1.5165495
1336.6	-1.5168208
1335.6	-1.5169936
1334.6	-1.5170503
1333.7	-1.5170810
1332.7	-1.5171405
1331.7	-1.5170851
1330.8	-1.5167027
1329.8	-1.5159967
1328.9	-1.5150623
1327.9	-1.5137891
1326.9	-1.5120437
1326.0	-1.5097891
1325.0	-1.5070235
1324.0	-1.5036956
1323.1	-1.4995373
1322.1	-1.4943225
1321.1	-1.4880908
1320.2	-1.4808978
1319.2	-1.4725989
1318.2	-1.4628681
1317.3	-1.4514753
1316.3	-1.4384724
1315.4	-1.4238033
1314.4	-1.4068393
1313.4	-1.3864250
1312.5	-1.3610963
1311.5	-1.3294250
1310.5	-1.2904583
1309.6	-1.2440298
1308.6	-1.1912463
1307.6	-1.1344304
1306.7	-1.0760623
1305.7	-1.0181924
1304.7	-0.9625680
1303.8	-0.9103862
1302.8	-0.8620691
1301.9	-0.8176792
1300.9	-0.7772254
1299.9	-0.7407980
1299.0	-0.7087407
1298.0	-0.6815977
1297.0	-0.6600284
1296.1	-0.6447505
1295.1	-0.6365953
1294.1	-0.6362068
1293.2	-0.6437737
1292.2	-0.6591177
1291.2	-0.6815579
1290.3	-0.7097036
1289.3	-0.7416875
1288.4	-0.7759663
1287.4	-0.8116658
1286.4	-0.8482471
1285.5	-0.8852686
1284.5	-0.9225509
1283.5	-0.9600345
1282.6	-0.9974303
1281.6	-1.0342472
1280.6	-1.0699805
1279.7	-1.1043558
1278.7	-1.1371003
1277.7	-1.1679801
1276.8	-1.1971911
1275.8	-1.2249625
1274.8	-1.2511442
1273.9	-1.2753166
1272.9	-1.2973307
1272.0	-1.3176390
1271.0	-1.3366435
1270.0	-1.3543398
1269.1	-1.3708574
1268.1	-1.3859105
1267.1	-1.3984258
1266.2	-1.4090503
1265.2	-1.4200116
1264.2	-1.4311635
1263.3	-1.4408423
1262.3	-1.4489881
1261.3	-1.4562976
1260.4	-1.4630733
1259.4	-1.4693089
1258.5	-1.4747460
1257.5	-1.4793652
1256.5	-1.4835395
1255.6	-1.4874557
1254.6	-1.4910102
1253.6	-1.4942093
1252.7	-1.4971375
1251.7	-1.4997711
1250.7	-1.5021527
1249.8	-1.5044380
1248.8	-1.5066239
1247.8	-1.5085676
1246.9	-1.5101763
1245.9	-1.5114639
1245.0	-1.5126640
1244.0	-1.5139542
1243.0	-1.5151976
1242.1	-1.5162712
1241.1	-1.5172396
1240.1	-1.5181390
1239.2	-1.5188574
1238.2	-1.5193766
1237.2	-1.5198359
1236.3	-1.5202899
1235.3	-1.5207520
1234.3	-1.5212127
1233.4	-1.5215795
1232.4	-1.5218400
1231.5	-1.5220428
1230.5	-1.5221598
1229.5	-1.5222363
1228.6	-1.5223182
1227.6	-1.5222663
1226.6	-1.5220876
1225.7	-1.5219331
1224.7	-1.5217181
1223.7	-1.5213681
1222.8	-1.5210900
1221.8	-1.5208882
1220.8	-1.5203681
1219.9	-1.5194584
1218.9	-1.5185459
1218.0	-1.5177600
1217.0	-1.5168236
1216.0	-1.5155828
1215.1	-1.5141791
1214.1	-1.5126852
1213.1	-1.5110085
1212.2	-1.5090486
1211.2	-1.5068041
1210.2	-1.5042984
1209.3	-1.5014486
1208.3	-1.4982603
1207.3	-1.4948931
1206.4	-1.4914548
1205.4	-1.4879699
1204.5	-1.4846007
1203.5	-1.4815625
1202.5	-1.4787682
1201.6	-1.4761522
1200.6	-1.4740089
1199.6	-1.4725373
1198.7	-1.4716387
1197.7	-1.4712305
1196.7	-1.4711660
1195.8	-1.4714307
1194.8	-1.4723004
1193.8	-1.4732418
1192.9	-1.4731230
1191.9	-1.4719614
1191.0	-1.4706410
1190.0	-1.4699572
1189.0	-1.4701782
1188.1	-1.4701648
1187.1	-1.4698457
1186.1	-1.4703890
1185.2	-1.4689605
1184.2	-1.4641644
1183.2	-1.4615806
1182.3	-1.4631213
1181.3	-1.4646035
1180.3	-1.4647167
1179.4	-1.4645352
1178.4	-1.4642015
1177.5	-1.4636235
1176.5	-1.4630634
1175.5	-1.4630913
1174.6	-1.4639815
1173.6	-1.4657989
1172.6	-1.4686172
1171.7	-1.4716157
1170.7	-1.4734335
1169.7	-1.4743114
1168.8	-1.4760755
1167.8	-1.4794357
1166.8	-1.4829925
1165.9	-1.4853821
1164.9	-1.4867518
1164.0	-1.4877815
1163.0	-1.4888227
1162.0	-1.4900681
1161.1	-1.4917315
1160.1	-1.4939374
1159.1	-1.4964836
1158.2	-1.4988996
1157.2	-1.5008745
1156.2	-1.5024506
1155.3	-1.5036894
1154.3	-1.5045874
1153.3	-1.5054091
1152.4	-1.5065925
1151.4	-1.5080947
1150.5	-1.5095286
1149.5	-1.5109423
1148.5	-1.5123683
1147.6	-1.5136268
1146.6	-1.5149306
1145.6	-1.5163577
1144.7	-1.5175956
1143.7	-1.5186162
1142.7	-1.5197028
1141.8	-1.5208822
1140.8	-1.5217818
1139.8	-1.5222250
1138.9	-1.5225079
1137.9	-1.5228630
1136.9	-1.5231125
1136.0	-1.5231484
1135.0	-1.5233134
1134.1	-1.5237719
1133.1	-1.5241892
1132.1	-1.5244713
1131.2	-1.5248302
1130.2	-1.5251465
1129.2	-1.5252777
1128.3	-1.5254587
1127.3	-1.5257267
1126.3	-1.5258970
1125.4	-1.5260508
1124.4	-1.5262699
1123.4	-1.5266140
1122.5	-1.5271283
1121.5	-1.5275192
1120.6	-1.5276611
1119.6	-1.5277684
1118.6	-1.5278666
1117.7	-1.5278865
1116.7	-1.5278293
1115.7	-1.5277231
1114.8	-1.5276846
1113.8	-1.5277679
1112.8	-1.5277572
1111.9	-1.5273848
1110.9	-1.5268310
1109.9	-1.5264626
1109.0	-1.5261707
1108.0	-1.5257412
1107.1	-1.5251946
1106.1	-1.5246829
1105.1	-1.5245057
1104.2	-1.5244364
1103.2	-1.5238484
1102.2	-1.5228314
1101.3	-1.5219779
1100.3	-1.5214840
1099.3	-1.5210036
1098.4	-1.5203227
1097.4	-1.5197356
1096.4	-1.5193702
1095.5	-1.5188406
1094.5	-1.5178659
1093.6	-1.5166448
1092.6	-1.5156308
1091.6	-1.5151691
1090.7	-1.5150118
1089.7	-1.5145713
1088.7	-1.5137337
1087.8	-1.5128514
1086.8	-1.5122663
1085.8	-1.5119503
1084.9	-1.5115108
1083.9	-1.5107838
1082.9	-1.5101782
1082.0	-1.5099618
1081.0	-1.5097368
1080.1	-1.5091275
1079.1	-1.5081978
1078.1	-1.5071977
1077.2	-1.5064639
1076.2	-1.5062903
1075.2	-1.5065825
1074.3	-1.5066274
1073.3	-1.5058600
1072.3	-1.5047749
1071.4	-1.5040528
1070.4	-1.5035659
1069.4	-1.5031253
1068.5	-1.5029618
1067.5	-1.5032696
1066.6	-1.5037624
1065.6	-1.5037404
1064.6	-1.5030552
1063.7	-1.5022529
1062.7	-1.5019834
1061.7	-1.5025398
1060.8	-1.5032647
1059.8	-1.5035890
1058.8	-1.5039692
1057.9	-1.5045559
1056.9	-1.5047854
1055.9	-1.5045953
1055.0	-1.5047841
1054.0	-1.5059973
1053.1	-1.5077499
1052.1	-1.5091412
1051.1	-1.5096720
1050.2	-1.5091840
1049.2	-1.5088779
1048.2	-1.5101219
1047.3	-1.5118883
1046.3	-1.5130045
1045.3	-1.5137912
1044.4	-1.5142004
1043.4	-1.5140964
1042.4	-1.5142391
1041.5	-1.5150759
1040.5	-1.5156660
1039.6	-1.5152297
1038.6	-1.5146478
1037.6	-1.5146487
1036.7	-1.5142863
1035.7	-1.5126268
1034.7	-1.5104998
1033.8	-1.5092553
1032.8	-1.5085003
1031.8	-1.5067549
1030.9	-1.5040858
1029.9	-1.5018215
1028.9	-1.5002240
1028.0	-1.4986589
1027.0	-1.4964575
1026.1	-1.4932252
1025.1	-1.4898069
1024.1	-1.4873006
1023.2	-1.4853356
1022.2	-1.4830573
1021.2	-1.4806612
1020.3	-1.4788285
1019.3	-1.4774305
1018.3	-1.4758136
1017.4	-1.4739621
1016.4	-1.4724715
1015.4	-1.4714997
1014.5	-1.4707314
1013.5	-1.4703423
1012.6	-1.4706078
1011.6	-1.4712301
1010.6	-1.4720905
1009.7	-1.4732383
1008.7	-1.4744869
1007.7	-1.4759268
1006.8	-1.4774016
1005.8	-1.4783636
1004.8	-1.4792826
1003.9	-1.4809991
1002.9	-1.4830515
1001.9	-1.4846810
1001.0	-1.4861574
1000.0	-1.4878103
999.1	-1.4895886
998.1	-1.4916885
997.1	-1.4937322
996.2	-1.4950010
995.2	-1.4960663
994.2	-1.4976678
993.3	-1.4990996
992.3	-1.4998239
991.3	-1.5007730
990.4	-1.5020851
989.4	-1.5026293
988.4	-1.5027772
987.5	-1.5031146
986.5	-1.5022936
985.5	-1.5000752
984.6	-1.4986330
983.6	-1.4988244
982.7	-1.4988952
981.7	-1.4977354
980.7	-1.4958999
979.8	-1.4940091
978.8	-1.4924216
977.8	-1.4907253
976.9	-1.4881269
975.9	-1.4851118
974.9	-1.4824777
974.0	-1.4796357
973.0	-1.4762969
972.0	-1.4730916
971.1	-1.4694515
970.1	-1.4649537
969.2	-1.4604074
968.2	-1.4557704
967.2	-1.4506431
966.3	-1.4456128
965.3	-1.4413561
964.3	-1.4371564
963.4	-1.4322454
962.4	-1.4281256
961.4	-1.4253007
960.5	-1.4209683
959.5	-1.4142622
958.5	-1.4081451
957.6	-1.4045051
956.6	-1.4021587
955.7	-1.3989809
954.7	-1.3947693
953.7	-1.3907613
952.8	-1.3866459
951.8	-1.3819952
950.8	-1.3777680
949.9	-1.3749715
948.9	-1.3738946
947.9	-1.3735607
947.0	-1.3733681
946.0	-1.3733679
945.0	-1.3726536
944.1	-1.3709053
943.1	-1.3685514
942.2	-1.3666761
941.2	-1.3684344
940.2	-1.3735025
939.3	-1.3759344
938.3	-1.3749393
937.3	-1.3755695
936.4	-1.3792506
935.4	-1.3833069
934.4	-1.3852752
933.5	-1.3880782
932.5	-1.3952942
931.5	-1.4015245
930.6	-1.4014881
929.6	-1.4004495
928.7	-1.4043303
927.7	-1.4108424
926.7	-1.4145429
925.8	-1.4137625
924.8	-1.4112519
923.8	-1.4111567
922.9	-1.4163394
921.9	-1.4260132
920.9	-1.4353759
920.0	-1.4414082
919.0	-1.4444628
918.0	-1.4435407
917.1	-1.4385132
916.1	-1.4358107
915.2	-1.4457670
914.2	-1.4681873
913.2	-1.4852219
912.3	-1.4851155
911.3	-1.4808582
910.3	-1.4820452
909.4	-1.4812025
908.4	-1.4802464
907.4	-1.4895551
906.5	-1.5022955
905.5	-1.5015309
904.5	-1.4891920
903.6	-1.4815791
902.6	-1.4801589
901.7	-1.4794066
900.7	-1.4861290
899.7	-1.4995776
