3998.1	0.0035686
3997.2	0.0035444
3996.2	0.0035299
3995.2	0.0035468
3994.3	0.0035574
3993.3	0.0035436
3992.3	0.0035255
3991.4	0.0035144
3990.4	0.0035127
3989.5	0.0035318
3988.5	0.0035595
3987.5	0.0035705
3986.6	0.0035643
3985.6	0.0035378
3984.6	0.0034933
3983.7	0.0034643
3982.7	0.0034698
3981.7	0.0035062
3980.8	0.0035455
3979.8	0.0035358
3978.8	0.0034916
3977.9	0.0034825
3976.9	0.0035026
3975.9	0.0035089
3975.0	0.0035147
3974.0	0.0035315
3973.1	0.0035343
3972.1	0.0035237
3971.1	0.0035224
3970.2	0.0035338
3969.2	0.0035484
3968.2	0.0035509
3967.3	0.0035346
3966.3	0.0035153
3965.3	0.0035018
3964.4	0.0034845
3963.4	0.0034705
3962.4	0.0034639
3961.5	0.0034449
3960.5	0.0034383
3959.6	0.0034773
3958.6	0.0035141
3957.6	0.0035049
3956.7	0.0034720
3955.7	0.0034507
3954.7	0.0034557
3953.8	0.0034681
3952.8	0.0034554
3951.8	0.0034263
3950.9	0.0034139
3949.9	0.0034142
3948.9	0.0034024
3948.0	0.0033602
3947.0	0.0033016
3946.1	0.0032856
3945.1	0.0033141
3944.1	0.0033249
3943.2	0.0033125
3942.2	0.0032960
3941.2	0.0032823
3940.3	0.0032859
3939.3	0.0032931
3938.3	0.0032727
3937.4	0.0032147
3936.4	0.0031670
3935.4	0.0031851
3934.5	0.0032312
3933.5	0.0032591
3932.6	0.0032694
3931.6	0.0032484
3930.6	0.0032196
3929.7	0.0032297
3928.7	0.0032418
3927.7	0.0032184
3926.8	0.0032153
3925.8	0.0032631
3924.8	0.0033062
3923.9	0.0033053
3922.9	0.0032686
3921.9	0.0032273
3921.0	0.0032127
3920.0	0.0032221
3919.1	0.0032408
3918.1	0.0032588
3917.1	0.0032718
3916.2	0.0032750
3915.2	0.0032451
3914.2	0.0031899
3913.3	0.0031574
3912.3	0.0031577
3911.3	0.0031625
3910.4	0.0031674
3909.4	0.0031790
3908.4	0.0031865
3907.5	0.0031898
3906.5	0.0032008
3905.6	0.0032336
3904.6	0.0032859
3903.6	0.0033342
3902.7	0.0033563
3901.7	0.0033352
3900.7	0.0033201
3899.8	0.0033343
3898.8	0.0033044
3897.8	0.0032443
3896.9	0.0032218
3895.9	0.0032276
3894.9	0.0032240
3894.0	0.0031917
3893.0	0.0031765
3892.1	0.0032037
3891.1	0.0031911
3890.1	0.0031173
3889.2	0.0030596
3888.2	0.0030646
3887.2	0.0031556
3886.3	0.0032456
3885.3	0.0032006
3884.3	0.0031032
3883.4	0.0030669
3882.4	0.0030646
3881.4	0.0030892
3880.5	0.0031167
3879.5	0.0030856
3878.6	0.0030394
3877.6	0.0030458
3876.6	0.0030810
3875.7	0.0031228
3874.7	0.0031625
3873.7	0.0031477
3872.8	0.0030986
3871.8	0.0031378
3870.8	0.0032619
3869.9	0.0032995
3868.9	0.0032033
3867.9	0.0031113
3867.0	0.0031236
3866.0	0.0032107
3865.1	0.0032526
3864.1	0.0031960
3863.1	0.0031333
3862.2	0.0031291
3861.2	0.0031525
3860.2	0.0031501
3859.3	0.0030966
3858.3	0.0030595
3857.3	0.0030800
3856.4	0.0031644
3855.4	0.0033962
3854.4	0.0036366
3853.5	0.0036492
3852.5	0.0035187
3851.6	0.0033340
3850.6	0.0031215
3849.6	0.0030072
3848.7	0.0030113
3847.7	0.0030413
3846.7	0.0030562
3845.8	0.0030673
3844.8	0.0030784
3843.8	0.0030705
3842.9	0.0030507
3841.9	0.0030723
3840.9	0.0031262
3840.0	0.0031831
3839.0	0.0032910
3838.0	0.0033694
3837.1	0.0032984
3836.1	0.0031779
3835.2	0.0030768
3834.2	0.0029746
3833.2	0.0029424
3832.3	0.0029984
3831.3	0.0030632
3830.3	0.0031024
3829.4	0.0030907
3828.4	0.0030151
3827.4	0.0029263
3826.5	0.0028626
3825.5	0.0028260
3824.5	0.0028057
3823.6	0.0028258
3822.6	0.0029371
3821.7	0.0030610
3820.7	0.0030684
3819.7	0.0029971
3818.8	0.0029583
3817.8	0.0030267
3816.8	0.0031774
3815.9	0.0032270
3814.9	0.0031057
3813.9	0.0029536
3813.0	0.0028494
3812.0	0.0028053
3811.0	0.0028155
3810.1	0.0028432
3809.1	0.0029320
3808.2	0.0030910
3807.2	0.0031562
3806.2	0.0030563
3805.3	0.0029426
3804.3	0.0029256
3803.3	0.0030030
3802.4	0.0031124
3801.4	0.0031062
3800.4	0.0029455
3799.5	0.0027976
3798.5	0.0027747
3797.5	0.0028205
3796.6	0.0028435
3795.6	0.0028248
3794.7	0.0027939
3793.7	0.0027780
3792.7	0.0027984
3791.8	0.0028414
3790.8	0.0028532
3789.8	0.0028097
3788.9	0.0027622
3787.9	0.0027678
3786.9	0.0027973
3786.0	0.0027978
3785.0	0.0027721
3784.0	0.0027553
3783.1	0.0027705
3782.1	0.0027997
3781.2	0.0028312
3780.2	0.0028486
3779.2	0.0027941
3778.3	0.0026980
3777.3	0.0026713
3776.3	0.0027070
3775.4	0.0027197
3774.4	0.0027075
3773.4	0.0026997
3772.5	0.0027167
3771.5	0.0027963
3770.5	0.0028836
3769.6	0.0028625
3768.6	0.0027664
3767.7	0.0027215
3766.7	0.0027389
3765.7	0.0027444
3764.8	0.0027157
3763.8	0.0026848
3762.8	0.0026773
3761.9	0.0027033
3760.9	0.0027650
3759.9	0.0028291
3759.0	0.0028459
3758.0	0.0028216
3757.0	0.0027829
3756.1	0.0027424
3755.1	0.0027366
3754.2	0.0028353
3753.2	0.0030309
3752.2	0.0031392
3751.3	0.0031228
3750.3	0.0031654
3749.3	0.0031815
3748.4	0.0030106
3747.4	0.0028447
3746.4	0.0029430
3745.5	0.0032660
3744.5	0.0034331
3743.5	0.0032509
3742.6	0.0029999
3741.6	0.0028661
3740.7	0.0028096
3739.7	0.0028032
3738.7	0.0028444
3737.8	0.0029435
3736.8	0.0030560
3735.8	0.0030967
3734.9	0.0030724
3733.9	0.0030728
3732.9	0.0031202
3732.0	0.0031128
3731.0	0.0030157
3730.0	0.0029273
3729.1	0.0029086
3728.1	0.0029426
3727.2	0.0029706
3726.2	0.0029413
3725.2	0.0028933
3724.3	0.0029025
3723.3	0.0029592
3722.3	0.0029771
3721.4	0.0029355
3720.4	0.0029064
3719.4	0.0029003
3718.5	0.0028624
3717.5	0.0028107
3716.5	0.0028068
3715.6	0.0028420
3714.6	0.0028842
3713.7	0.0029783
3712.7	0.0031035
3711.7	0.0031176
3710.8	0.0030440
3709.8	0.0030113
3708.8	0.0029995
3707.9	0.0029651
3706.9	0.0029343
3705.9	0.0029244
3705.0	0.0029207
3704.0	0.0029283
3703.0	0.0029831
3702.1	0.0030290
3701.1	0.0029766
3700.1	0.0028980
3699.2	0.0028870
3698.2	0.0028984
3697.3	0.0028865
3696.3	0.0028813
3695.3	0.0029150
3694.4	0.0029644
3693.4	0.0029867
3692.4	0.0029959
3691.5	0.0030032
3690.5	0.0030401
3689.5	0.0031708
3688.6	0.0032685
3687.6	0.0031779
3686.6	0.0030224
3685.7	0.0029469
3684.7	0.0029407
3683.8	0.0029558
3682.8	0.0029522
3681.8	0.0029359
3680.9	0.0029446
3679.9	0.0029652
3678.9	0.0029726
3678.0	0.0030188
3677.0	0.0031641
3676.0	0.0033145
3675.1	0.0032996
3674.1	0.0031385
3673.1	0.0030188
3672.2	0.0030566
3671.2	0.0031704
3670.3	0.0032012
3669.3	0.0031407
3668.3	0.0030684
3667.4	0.0030216
3666.4	0.0030198
3665.4	0.0030247
3664.5	0.0029915
3663.5	0.0029597
3662.5	0.0029699
3661.6	0.0030024
3660.6	0.0030250
3659.6	0.0030337
3658.7	0.0030598
3657.7	0.0031396
3656.8	0.0032048
3655.8	0.0031530
3654.8	0.0030704
3653.9	0.0030829
3652.9	0.0031559
3651.9	0.0032471
3651.0	0.0033718
3650.0	0.0034799
3649.0	0.0034935
3648.1	0.0034321
3647.1	0.0033506
3646.1	0.0032730
3645.2	0.0032286
3644.2	0.0032358
3643.3	0.0032669
3642.3	0.0032664
3641.3	0.0032394
3640.4	0.0032578
3639.4	0.0033136
3638.4	0.0033351
3637.5	0.0033256
3636.5	0.0033317
3635.5	0.0033588
3634.6	0.0033905
3633.6	0.0034129
3632.6	0.0034381
3631.7	0.0035287
3630.7	0.0037025
3629.8	0.0038671
3628.8	0.0039088
3627.8	0.0038185
3626.9	0.0037107
3625.9	0.0036714
3624.9	0.0036638
3624.0	0.0036540
3623.0	0.0036874
3622.0	0.0037747
3621.1	0.0038983
3620.1	0.0040506
3619.1	0.0041664
3618.2	0.0042169
3617.2	0.0042683
3616.3	0.0043890
3615.3	0.0045850
3614.3	0.0048147
3613.4	0.0050915
3612.4	0.0054379
3611.4	0.0058500
3610.5	0.0063651
3609.5	0.0069708
3608.5	0.0076148
3607.6	0.0083417
3606.6	0.0092028
3605.6	0.0101607
3604.7	0.0111944
3603.7	0.0123054
3602.8	0.0134788
3601.8	0.0147052
3600.8	0.0159205
3599.9	0.0170506
3598.9	0.0181043
3597.9	0.0190805
3597.0	0.0198890
3596.0	0.0204489
3595.0	0.0207386
3594.1	0.0207485
3593.1	0.0204773
3592.1	0.0199566
3591.2	0.0192602
3590.2	0.0184276
3589.3	0.0174766
3588.3	0.0166612
3587.3	0.0169205
3586.4	0.0187414
3585.4	0.0201450
3584.4	0.0201954
3583.5	0.0223364
3582.5	0.0273576
3581.5	0.0297109
3580.6	0.0265428
3579.6	0.0216274
3578.6	0.0184436
3577.7	0.0171646
3576.7	0.0170440
3575.8	0.0175642
3574.8	0.0183538
3573.8	0.0192058
3572.9	0.0200053
3571.9	0.0206496
3570.9	0.0210401
3570.0	0.0211745
3569.0	0.0210861
3568.0	0.0207418
3567.1	0.0201391
3566.1	0.0193284
3565.1	0.0183548
3564.2	0.0172762
3563.2	0.0161786
3562.3	0.0151060
3561.3	0.0140588
3560.3	0.0130727
3559.4	0.0121762
3558.4	0.0113483
3557.4	0.0105666
3556.5	0.0098309
3555.5	0.0091709
3554.5	0.0086222
3553.6	0.0081676
3552.6	0.0077602
3551.6	0.0073904
3550.7	0.0070787
3549.7	0.0068393
3548.7	0.0066634
3547.8	0.0065259
3546.8	0.0063943
3545.9	0.0062610
3544.9	0.0061500
3543.9	0.0060636
3543.0	0.0059915
3542.0	0.0059345
3541.0	0.0058811
3540.1	0.0058204
3539.1	0.0057752
3538.1	0.0057600
3537.2	0.0057422
3536.2	0.0057081
3535.2	0.0056772
3534.3	0.0056625
3533.3	0.0056667
3532.4	0.0056797
3531.4	0.0056870
3530.4	0.0056800
3529.5	0.0056769
3528.5	0.0056926
3527.5	0.0057006
3526.6	0.0056967
3525.6	0.0057028
3524.6	0.0057208
3523.7	0.0057480
3522.7	0.0057790
3521.7	0.0058089
3520.8	0.0058423
3519.8	0.0058721
3518.9	0.0058827
3517.9	0.0058842
3516.9	0.0059024
3516.0	0.0059487
3515.0	0.0060128
3514.0	0.0060702
3513.1	0.0061095
3512.1	0.0061449
3511.1	0.0062013
3510.2	0.0062863
3509.2	0.0063677
3508.2	0.0064198
3507.3	0.0064596
3506.3	0.0065070
3505.4	0.0065656
3504.4	0.0066289
3503.4	0.0066979
3502.5	0.0067739
3501.5	0.0068311
3500.5	0.0068634
3499.6	0.0069053
3498.6	0.0069723
3497.6	0.0070500
3496.7	0.0071256
3495.7	0.0071846
3494.7	0.0072284
3493.8	0.0072872
3492.8	0.0073653
3491.9	0.0074528
3490.9	0.0075415
3489.9	0.0076077
3489.0	0.0076590
3488.0	0.0077243
3487.0	0.0078147
3486.1	0.0079130
3485.1	0.0079862
3484.1	0.0080516
3483.2	0.0081574
3482.2	0.0082951
3481.2	0.0084138
3480.3	0.0084864
3479.3	0.0085553
3478.4	0.0086756
3477.4	0.0088106
3476.4	0.0089092
3475.5	0.0089941
3474.5	0.0090996
3473.5	0.0092354
3472.6	0.0093810
3471.6	0.0095097
3470.6	0.0096209
3469.7	0.0097275
3468.7	0.0098543
3467.7	0.0100066
3466.8	0.0101590
3465.8	0.0103024
3464.9	0.0104450
3463.9	0.0105896
3462.9	0.0107427
3462.0	0.0109051
3461.0	0.0110526
3460.0	0.0111704
3459.1	0.0112901
3458.1	0.0114445
3457.1	0.0116206
3456.2	0.0117918
3455.2	0.0119440
3454.2	0.0120826
3453.3	0.0122403
3452.3	0.0124214
3451.4	0.0125878
3450.4	0.0127275
3449.4	0.0128659
3448.5	0.0130152
3447.5	0.0131679
3446.5	0.0133339
3445.6	0.0135247
3444.6	0.0137105
3443.6	0.0138654
3442.7	0.0140192
3441.7	0.0142055
3440.7	0.0144038
3439.8	0.0145922
3438.8	0.0147792
3437.9	0.0149670
3436.9	0.0151680
3435.9	0.0153911
3435.0	0.0156148
3434.0	0.0158421
3433.0	0.0160877
3432.1	0.0163423
3431.1	0.0166024
3430.1	0.0168772
3429.2	0.0171656
3428.2	0.0174515
3427.2	0.0177423
3426.3	0.0180698
3425.3	0.0184278
3424.4	0.0187771
3423.4	0.0191102
3422.4	0.0194675
3421.5	0.0198747
3420.5	0.0202960
3419.5	0.0207204
3418.6	0.0211677
3417.6	0.0216094
3416.6	0.0220437
3415.7	0.0225161
3414.7	0.0230338
3413.7	0.0235691
3412.8	0.0240912
3411.8	0.0245852
3410.8	0.0250725
3409.9	0.0255868
3408.9	0.0261307
3408.0	0.0266771
3407.0	0.0271977
3406.0	0.0276846
3405.1	0.0281630
3404.1	0.0286439
3403.1	0.0291074
3402.2	0.0295476
3401.2	0.0299668
3400.2	0.0303538
3399.3	0.0306913
3398.3	0.0309688
3397.3	0.0311961
3396.4	0.0313955
3395.4	0.0315845
3394.5	0.0317524
3393.5	0.0318677
3392.5	0.0319342
3391.6	0.0319907
3390.6	0.0320445
3389.6	0.0320764
3388.7	0.0320938
3387.7	0.0321103
3386.7	0.0321166
3385.8	0.0321167
3384.8	0.0321332
3383.8	0.0321793
3382.9	0.0322643
3381.9	0.0323903
3381.0	0.0325289
3380.0	0.0326567
3379.0	0.0328024
3378.1	0.0329986
3377.1	0.0332213
3376.1	0.0334540
3375.2	0.0337196
3374.2	0.0340052
3373.2	0.0342811
3372.3	0.0345608
3371.3	0.0348616
3370.3	0.0351786
3369.4	0.0355082
3368.4	0.0358599
3367.5	0.0362385
3366.5	0.0366266
3365.5	0.0370173
3364.6	0.0374288
3363.6	0.0378592
3362.6	0.0382740
3361.7	0.0386690
3360.7	0.0390868
3359.7	0.0395446
3358.8	0.0400133
3357.8	0.0404825
3356.8	0.0409698
3355.9	0.0414695
3354.9	0.0419525
3354.0	0.0424132
3353.0	0.0428873
3352.0	0.0434143
3351.1	0.0439942
3350.1	0.0445981
3349.1	0.0451898
3348.2	0.0457511
3347.2	0.0463187
3346.2	0.0469295
3345.3	0.0475631
3344.3	0.0481876
3343.3	0.0488074
3342.4	0.0494542
3341.4	0.0501398
3340.5	0.0508341
3339.5	0.0515194
3338.5	0.0522051
3337.6	0.0528972
3336.6	0.0536042
3335.6	0.0543337
3334.7	0.0550737
3333.7	0.0558104
3332.7	0.0565657
3331.8	0.0573760
3330.8	0.0582180
3329.8	0.0590378
3328.9	0.0598346
3327.9	0.0606408
3327.0	0.0614720
3326.0	0.0623366
3325.0	0.0632391
3324.1	0.0641556
3323.1	0.0650515
3322.1	0.0659279
3321.2	0.0668202
3320.2	0.0677524
3319.2	0.0687099
3318.3	0.0696640
3317.3	0.0706108
3316.3	0.0715622
3315.4	0.0725193
3314.4	0.0734744
3313.5	0.0744156
3312.5	0.0753398
3311.5	0.0762752
3310.6	0.0772504
3309.6	0.0782336
3308.6	0.0791776
3307.7	0.0800913
3306.7	0.0810038
3305.7	0.0819266
3304.8	0.0828517
3303.8	0.0837477
3302.8	0.0846123
3301.9	0.0854764
3300.9	0.0863512
3300.0	0.0872382
3299.0	0.0881357
3298.0	0.0890234
3297.1	0.0898997
3296.1	0.0907904
3295.1	0.0916870
3294.2	0.0925663
3293.2	0.0934373
3292.2	0.0943070
3291.3	0.0951701
3290.3	0.0960383
3289.3	0.0969298
3288.4	0.0978341
3287.4	0.0987387
3286.5	0.0996659
3285.5	0.1006074
3284.5	0.1015324
3283.6	0.1024739
3282.6	0.1034588
3281.6	0.1044615
3280.7	0.1055057
3279.7	0.1066200
3278.7	0.1077546
3277.8	0.1088807
3276.8	0.1100285
3275.8	0.1112263
3274.9	0.1124774
3273.9	0.1137449
3272.9	0.1149973
3272.0	0.1162704
3271.0	0.1175998
3270.1	0.1189468
3269.1	0.1202725
3268.1	0.1215904
3267.2	0.1229167
3266.2	0.1242473
3265.2	0.1255542
3264.3	0.1268154
3263.3	0.1280590
3262.3	0.1293146
3261.4	0.1305505
3260.4	0.1317308
3259.4	0.1328838
3258.5	0.1340457
3257.5	0.1351972
3256.6	0.1362997
3255.6	0.1373666
3254.6	0.1384440
3253.7	0.1395210
3252.7	0.1405484
3251.7	0.1415373
3250.8	0.1425366
3249.8	0.1435466
3248.8	0.1445468
3247.9	0.1455428
3246.9	0.1465343
3245.9	0.1475038
3245.0	0.1484493
3244.0	0.1493781
3243.1	0.1502837
3242.1	0.1511643
3241.1	0.1520423
3240.2	0.1529324
3239.2	0.1538101
3238.2	0.1546513
3237.3	0.1554653
3236.3	0.1562623
3235.3	0.1570538
3234.4	0.1578578
3233.4	0.1586530
3232.4	0.1594204
3231.5	0.1601855
3230.5	0.1609663
3229.6	0.1617665
3228.6	0.1625936
3227.6	0.1634494
3226.7	0.1643395
3225.7	0.1652571
3224.7	0.1661814
3223.8	0.1671202
3222.8	0.1681033
3221.8	0.1691470
3220.9	0.1702319
3219.9	0.1713118
3218.9	0.1723879
3218.0	0.1735151
3217.0	0.1747084
3216.1	0.1759424
3215.1	0.1772019
3214.1	0.1784681
3213.2	0.1797260
3212.2	0.1809909
3211.2	0.1822779
3210.3	0.1835658
3209.3	0.1848110
3208.3	0.1860026
3207.4	0.1871650
3206.4	0.1882962
3205.4	0.1893671
3204.5	0.1903654
3203.5	0.1912855
3202.6	0.1921315
3201.6	0.1929159
3200.6	0.1936249
3199.7	0.1942502
3198.7	0.1948287
3197.7	0.1953827
3196.8	0.1958969
3195.8	0.1963735
3194.8	0.1968314
3193.9	0.1972723
3192.9	0.1977033
3191.9	0.1981281
3191.0	0.1985328
3190.0	0.1989381
3189.1	0.1993748
3188.1	0.1998109
3187.1	0.2001923
3186.2	0.2005106
3185.2	0.2008081
3184.2	0.2011371
3183.3	0.2014965
3182.3	0.2018287
3181.3	0.2021136
3180.4	0.2024129
3179.4	0.2027689
3178.4	0.2031367
3177.5	0.2034946
3176.5	0.2038919
3175.6	0.2043479
3174.6	0.2048639
3173.6	0.2054739
3172.7	0.2061825
3171.7	0.2069585
3170.7	0.2077885
3169.8	0.2086953
3168.8	0.2097225
3167.8	0.2108959
3166.9	0.2122074
3165.9	0.2136251
3164.9	0.2151460
3164.0	0.2168275
3163.0	0.2187134
3162.1	0.2207874
3161.1	0.2230120
3160.1	0.2253649
3159.2	0.2278534
3158.2	0.2304995
3157.2	0.2333135
3156.3	0.2362698
3155.3	0.2393155
3154.3	0.2424008
3153.4	0.2454755
3152.4	0.2485129
3151.4	0.2515054
3150.5	0.2544045
3149.5	0.2571490
3148.6	0.2597163
3147.6	0.2621053
3146.6	0.2643082
3145.7	0.2662893
3144.7	0.2679998
3143.7	0.2694377
3142.8	0.2706637
3141.8	0.2717211
3140.8	0.2725916
3139.9	0.2732798
3138.9	0.2738477
3137.9	0.2743243
3137.0	0.2747037
3136.0	0.2750145
3135.1	0.2752921
3134.1	0.2755320
3133.1	0.2756975
3132.2	0.2757715
3131.2	0.2757774
3130.2	0.2757213
3129.3	0.2755837
3128.3	0.2753803
3127.3	0.2751559
3126.4	0.2749164
3125.4	0.2746186
3124.4	0.2742246
3123.5	0.2737409
3122.5	0.2731957
3121.5	0.2725880
3120.6	0.2719018
3119.6	0.2711560
3118.7	0.2703851
3117.7	0.2695968
3116.7	0.2687573
3115.8	0.2678404
3114.8	0.2669036
3113.8	0.2660315
3112.9	0.2652692
3111.9	0.2646473
3110.9	0.2641814
3110.0	0.2638909
3109.0	0.2637647
3108.0	0.2637075
3107.1	0.2636907
3106.1	0.2638036
3105.2	0.2641173
3104.2	0.2646677
3103.2	0.2654577
3102.3	0.2664598
3101.3	0.2676660
3100.3	0.2690699
3099.4	0.2706535
3098.4	0.2724011
3097.4	0.2743081
3096.5	0.2763670
3095.5	0.2785314
3094.5	0.2807443
3093.6	0.2829730
3092.6	0.2852096
3091.7	0.2874590
3090.7	0.2896990
3089.7	0.2918807
3088.8	0.2939677
3087.8	0.2959450
3086.8	0.2978045
3085.9	0.2995535
3084.9	0.3012103
3083.9	0.3027516
3083.0	0.3041536
3082.0	0.3054571
3081.0	0.3066839
3080.1	0.3077852
3079.1	0.3087278
3078.2	0.3095193
3077.2	0.3101534
3076.2	0.3106015
3075.3	0.3108421
3074.3	0.3108837
3073.3	0.3107678
3072.4	0.3105176
3071.4	0.3101310
3070.4	0.3096161
3069.5	0.3089842
3068.5	0.3082590
3067.5	0.3074700
3066.6	0.3066358
3065.6	0.3058194
3064.7	0.3051039
3063.7	0.3044976
3062.7	0.3039637
3061.8	0.3034909
3060.8	0.3030881
3059.8	0.3027637
3058.9	0.3024801
3057.9	0.3021716
3056.9	0.3018233
3056.0	0.3014194
3055.0	0.3009319
3054.0	0.3004119
3053.1	0.2999279
3052.1	0.2994797
3051.2	0.2990275
3050.2	0.2985417
3049.2	0.2980408
3048.3	0.2975847
3047.3	0.2972273
3046.3	0.2969979
3045.4	0.2969311
3044.4	0.2970916
3043.4	0.2975434
3042.5	0.2983217
3041.5	0.2994376
3040.5	0.3009067
3039.6	0.3027917
3038.6	0.3051142
3037.7	0.3077560
3036.7	0.3106197
3035.7	0.3136720
3034.8	0.3167465
3033.8	0.3195868
3032.8	0.3220086
3031.9	0.3238874
3030.9	0.3251274
3029.9	0.3257010
3029.0	0.3256859
3028.0	0.3252428
3027.0	0.3245656
3026.1	0.3238172
3025.1	0.3230826
3024.2	0.3223923
3023.2	0.3217568
3022.2	0.3211726
3021.3	0.3206252
3020.3	0.3200808
3019.3	0.3195341
3018.4	0.3190201
3017.4	0.3185489
3016.4	0.3181404
3015.5	0.3178248
3014.5	0.3175976
3013.5	0.3174155
3012.6	0.3171488
3011.6	0.3166543
3010.7	0.3158621
3009.7	0.3147280
3008.7	0.3131677
3007.8	0.3110659
3006.8	0.3083928
3005.8	0.3052246
3004.9	0.3016127
3003.9	0.2975651
3002.9	0.2931301
3002.0	0.2883899
3001.0	0.2833973
3000.0	0.2782208
2999.1	0.2730969
2998.1	0.2681382
2997.2	0.2628277
2996.2	0.2567565
2995.2	0.2504339
2994.3	0.2444313
2993.3	0.2387488
2992.3	0.2332893
2991.4	0.2280905
2990.4	0.2232268
2989.4	0.2187718
2988.5	0.2147790
2987.5	0.2112907
2986.5	0.2083765
2985.6	0.2061330
2984.6	0.2046193
2983.6	0.2038486
2982.7	0.2038531
2981.7	0.2046685
2980.8	0.2062814
2979.8	0.2086791
2978.8	0.2118704
2977.9	0.2158084
2976.9	0.2204036
2975.9	0.2256119
2975.0	0.2314031
2974.0	0.2376953
2973.0	0.2443787
2972.1	0.2513284
2971.1	0.2584042
2970.1	0.2654495
2969.2	0.2722744
2968.2	0.2787161
2967.3	0.2846818
2966.3	0.2900906
2965.3	0.2948400
2964.4	0.2988631
2963.4	0.3021590
2962.4	0.3047168
2961.5	0.3065009
2960.5	0.3075241
2959.5	0.3078403
2958.6	0.3075007
2957.6	0.3065752
2956.6	0.3051732
2955.7	0.3034094
2954.7	0.3013729
2953.8	0.2991562
2952.8	0.2968858
2951.8	0.2946687
2950.9	0.2925187
2949.9	0.2904090
2948.9	0.2883889
2948.0	0.2865279
2947.0	0.2847778
2946.0	0.2830423
2945.1	0.2813150
2944.1	0.2796332
2943.1	0.2779922
2942.2	0.2763837
2941.2	0.2748028
2940.3	0.2732158
2939.3	0.2716273
2938.3	0.2700871
2937.4	0.2686036
2936.4	0.2671591
2935.4	0.2657318
2934.5	0.2642683
2933.5	0.2627279
2932.5	0.2611469
2931.6	0.2595878
2930.6	0.2580223
2929.6	0.2563606
2928.7	0.2545629
2927.7	0.2526280
2926.8	0.2505360
2925.8	0.2482339
2924.8	0.2456674
2923.9	0.2428472
2922.9	0.2398134
2921.9	0.2365586
2921.0	0.2330573
2920.0	0.2293345
2919.0	0.2254489
2918.1	0.2214333
2917.1	0.2173181
2916.1	0.2131521
2915.2	0.2089896
2914.2	0.2048921
2913.3	0.2008884
2912.3	0.1969562
2911.3	0.1930921
2910.4	0.1893460
2909.4	0.1857385
2908.4	0.1822326
2907.5	0.1788250
2906.5	0.1755470
2905.5	0.1724073
2904.6	0.1694023
2903.6	0.1665344
2902.6	0.1637982
2901.7	0.1611829
2900.7	0.1586936
2899.8	0.1563345
2898.8	0.1540920
2897.8	0.1519510
2896.9	0.1499063
2895.9	0.1479657
2894.9	0.1461300
2894.0	0.1444057
2893.0	0.1428196
2892.0	0.1413678
2891.1	0.1400024
2890.1	0.1386996
2889.1	0.1374770
2888.2	0.1363353
2887.2	0.1352597
2886.3	0.1342512
2885.3	0.1333155
2884.3	0.1324546
2883.4	0.1316658
2882.4	0.1309662
2881.4	0.1303889
2880.5	0.1299381
2879.5	0.1295831
2878.5	0.1292873
2877.6	0.1290530
2876.6	0.1289001
2875.6	0.1288159
2874.7	0.1287829
2873.7	0.1287917
2872.8	0.1288333
2871.8	0.1289037
2870.8	0.1289922
2869.9	0.1291068
2868.9	0.1292505
2867.9	0.1293860
2867.0	0.1295053
2866.0	0.1296423
2865.0	0.1298088
2864.1	0.1299935
2863.1	0.1301832
2862.1	0.1303775
2861.2	0.1305874
2860.2	0.1308089
2859.3	0.1310124
2858.3	0.1311645
2857.3	0.1312718
2856.4	0.1313926
2855.4	0.1315732
2854.4	0.1318065
2853.5	0.1320713
2852.5	0.1323545
2851.5	0.1326167
2850.6	0.1328112
2849.6	0.1329393
2848.6	0.1330269
2847.7	0.1330949
2846.7	0.1331648
2845.7	0.1332364
2844.8	0.1333068
2843.8	0.1333978
2842.9	0.1335087
2841.9	0.1336052
2840.9	0.1336522
2840.0	0.1336486
2839.0	0.1336225
2838.0	0.1335422
2837.1	0.1333282
2836.1	0.1329594
2835.1	0.1324673
2834.2	0.1318683
2833.2	0.1311398
2832.2	0.1302750
2831.3	0.1293066
2830.3	0.1282448
2829.4	0.1270841
2828.4	0.1258357
2827.4	0.1245238
2826.5	0.1231781
2825.5	0.1218388
2824.5	0.1205778
2823.6	0.1194516
2822.6	0.1184706
2821.6	0.1176338
2820.7	0.1169388
2819.7	0.1163781
2818.7	0.1159486
2817.8	0.1156461
2816.8	0.1154262
2815.9	0.1152443
2814.9	0.1151059
2813.9	0.1149961
2813.0	0.1148842
2812.0	0.1147614
2811.0	0.1146247
2810.1	0.1144985
2809.1	0.1143939
2808.1	0.1142999
2807.2	0.1142389
2806.2	0.1142180
2805.2	0.1142230
2804.3	0.1142920
2803.3	0.1144749
2802.4	0.1147542
2801.4	0.1150885
2800.4	0.1154947
2799.5	0.1160106
2798.5	0.1166253
2797.5	0.1172895
2796.6	0.1179526
2795.6	0.1185986
2794.6	0.1192305
2793.7	0.1198457
2792.7	0.1204663
2791.7	0.1211144
2790.8	0.1217695
2789.8	0.1224045
2788.9	0.1229881
2787.9	0.1234970
2786.9	0.1239639
2786.0	0.1244143
2785.0	0.1248210
2784.0	0.1251675
2783.1	0.1254510
2782.1	0.1256752
2781.1	0.1258492
2780.2	0.1259490
2779.2	0.1259441
2778.2	0.1258385
2777.3	0.1256431
2776.3	0.1253468
2775.4	0.1249355
2774.4	0.1243979
2773.4	0.1237129
2772.5	0.1228772
2771.5	0.1219165
2770.5	0.1208620
2769.6	0.1197145
2768.6	0.1184352
2767.6	0.1170119
2766.7	0.1154889
2765.7	0.1138934
2764.7	0.1122029
2763.8	0.1104269
2762.8	0.1086172
2761.9	0.1067849
2760.9	0.1049235
2759.9	0.1030475
2759.0	0.1011788
2758.0	0.0993519
2757.0	0.0976088
2756.1	0.0959641
2755.1	0.0943938
2754.1	0.0929039
2753.2	0.0915390
2752.2	0.0902914
2751.2	0.0891412
2750.3	0.0881255
2749.3	0.0872688
2748.4	0.0865395
2747.4	0.0859083
2746.4	0.0853966
2745.5	0.0850374
2744.5	0.0848310
2743.5	0.0847516
2742.6	0.0847500
2741.6	0.0848052
2740.6	0.0849563
2739.7	0.0852195
2738.7	0.0855655
2737.7	0.0859785
2736.8	0.0864447
2735.8	0.0869221
2734.9	0.0874018
2733.9	0.0879335
2732.9	0.0885352
2732.0	0.0891551
2731.0	0.0897315
2730.0	0.0902564
2729.1	0.0907612
2728.1	0.0912558
2727.1	0.0917340
2726.2	0.0922002
2725.2	0.0926854
2724.2	0.0932440
2723.3	0.0938936
2722.3	0.0946229
2721.4	0.0954423
2720.4	0.0963651
2719.4	0.0973975
2718.5	0.0985742
2717.5	0.0999665
2716.5	0.1016305
2715.6	0.1035921
2714.6	0.1058600
2713.6	0.1083699
2712.7	0.1110006
2711.7	0.1136906
2710.7	0.1164670
2709.8	0.1193463
2708.8	0.1222506
2707.9	0.1250862
2706.9	0.1278130
2705.9	0.1303905
2705.0	0.1327453
2704.0	0.1347872
2703.0	0.1364488
2702.1	0.1377089
2701.1	0.1385687
2700.1	0.1390406
2699.2	0.1391617
2698.2	0.1389467
2697.2	0.1383699
2696.3	0.1374387
2695.3	0.1361814
2694.3	0.1346060
2693.4	0.1327458
2692.4	0.1306584
2691.5	0.1283881
2690.5	0.1259769
2689.5	0.1234869
2688.6	0.1209667
2687.6	0.1184230
2686.6	0.1158597
2685.7	0.1133216
2684.7	0.1108642
2683.7	0.1084942
2682.8	0.1062041
2681.8	0.1040151
2680.8	0.1019629
2679.9	0.1001023
2678.9	0.0984700
2678.0	0.0970630
2677.0	0.0958816
2676.0	0.0949296
2675.1	0.0941898
2674.1	0.0936358
2673.1	0.0932435
2672.2	0.0929811
2671.2	0.0928054
2670.2	0.0926842
2669.3	0.0925858
2668.3	0.0924679
2667.3	0.0923050
2666.4	0.0920990
2665.4	0.0918511
2664.5	0.0915275
2663.5	0.0910855
2662.5	0.0905375
2661.6	0.0899246
2660.6	0.0892728
2659.6	0.0886344
2658.7	0.0881239
2657.7	0.0879169
2656.7	0.0882241
2655.8	0.0891922
2654.8	0.0908270
2653.8	0.0930405
2652.9	0.0957490
2651.9	0.0989180
2651.0	0.1024762
2650.0	0.1062564
2649.0	0.1100858
2648.1	0.1138177
2647.1	0.1173165
2646.1	0.1204765
2645.2	0.1232115
2644.2	0.1254709
2643.2	0.1272436
2642.3	0.1285141
2641.3	0.1292467
2640.3	0.1293870
2639.4	0.1289113
2638.4	0.1278549
2637.5	0.1262618
2636.5	0.1241831
2635.5	0.1217065
2634.6	0.1189333
2633.6	0.1159567
2632.6	0.1128559
2631.7	0.1097143
2630.7	0.1066088
2629.7	0.1035712
2628.8	0.1005982
2627.8	0.0976872
2626.8	0.0948532
2625.9	0.0921249
2624.9	0.0894993
2624.0	0.0869382
2623.0	0.0844432
2622.0	0.0820393
2621.1	0.0797122
2620.1	0.0774444
2619.1	0.0752386
2618.2	0.0731075
2617.2	0.0710625
2616.2	0.0690964
2615.3	0.0671944
2614.3	0.0653516
2613.3	0.0635745
2612.4	0.0618740
2611.4	0.0602566
2610.5	0.0587197
2609.5	0.0572483
2608.5	0.0558256
2607.6	0.0544533
2606.6	0.0531424
2605.6	0.0518874
2604.7	0.0506816
2603.7	0.0495319
2602.7	0.0484333
2601.8	0.0473704
2600.8	0.0463432
2599.8	0.0453668
2598.9	0.0444454
2597.9	0.0435693
2597.0	0.0427400
2596.0	0.0419711
2595.0	0.0412671
2594.1	0.0406402
2593.1	0.0401323
2592.1	0.0398205
2591.2	0.0398306
2590.2	0.0402733
2589.2	0.0411309
2588.3	0.0423042
2587.3	0.0437776
2586.3	0.0456196
2585.4	0.0478426
2584.4	0.0503765
2583.5	0.0531439
2582.5	0.0560916
2581.5	0.0591773
2580.6	0.0623520
2579.6	0.0655471
2578.6	0.0686901
2577.7	0.0717426
2576.7	0.0746883
2575.7	0.0774920
2574.8	0.0800874
2573.8	0.0824181
2572.8	0.0844820
2571.9	0.0862942
2570.9	0.0878368
2570.0	0.0890766
2569.0	0.0900138
2568.0	0.0906786
2567.1	0.0910869
2566.1	0.0912584
2565.1	0.0912199
2564.2	0.0909712
2563.2	0.0905215
2562.2	0.0899102
2561.3	0.0891552
2560.3	0.0882504
2559.3	0.0872048
2558.4	0.0860426
2557.4	0.0847863
2556.4	0.0834427
2555.5	0.0820067
2554.5	0.0804905
2553.6	0.0789193
2552.6	0.0773071
2551.6	0.0756623
2550.7	0.0739920
2549.7	0.0723027
2548.7	0.0706125
2547.8	0.0689355
2546.8	0.0672668
2545.8	0.0656126
2544.9	0.0639829
2543.9	0.0623736
2542.9	0.0607948
2542.0	0.0592583
2541.0	0.0577716
2540.1	0.0563560
2539.1	0.0550154
2538.1	0.0537294
2537.2	0.0524940
2536.2	0.0513118
2535.2	0.0501689
2534.3	0.0490565
2533.3	0.0479913
2532.3	0.0469964
2531.4	0.0460627
2530.4	0.0451559
2529.4	0.0442674
2528.5	0.0434126
2527.5	0.0425882
2526.6	0.0417899
2525.6	0.0410260
2524.6	0.0402878
2523.7	0.0395714
2522.7	0.0388859
2521.7	0.0382219
2520.8	0.0375806
2519.8	0.0369757
2518.8	0.0363884
2517.9	0.0358074
2516.9	0.0352545
2515.9	0.0347363
2515.0	0.0342333
2514.0	0.0337389
2513.1	0.0332628
2512.1	0.0328025
2511.1	0.0323529
2510.2	0.0319298
2509.2	0.0315311
2508.2	0.0311290
2507.3	0.0307191
2506.3	0.0303221
2505.3	0.0299591
2504.4	0.0296354
2503.4	0.0293353
2502.4	0.0290505
2501.5	0.0287862
2500.5	0.0285442
2499.6	0.0283276
2498.6	0.0281411
2497.6	0.0279826
2496.7	0.0278488
2495.7	0.0277327
2494.7	0.0276173
2493.8	0.0274927
2492.8	0.0273852
2491.8	0.0273295
2490.9	0.0273077
2489.9	0.0272678
2488.9	0.0271884
2488.0	0.0270842
2487.0	0.0269755
2486.1	0.0268683
2485.1	0.0267442
2484.1	0.0265951
2483.2	0.0264475
2482.2	0.0263226
2481.2	0.0262113
2480.3	0.0260948
2479.3	0.0259702
2478.3	0.0258491
2477.4	0.0257304
2476.4	0.0256107
2475.4	0.0255046
2474.5	0.0254178
2473.5	0.0253375
2472.6	0.0252583
2471.6	0.0251809
2470.6	0.0250958
2469.7	0.0249855
2468.7	0.0248593
2467.7	0.0247467
2466.8	0.0246444
2465.8	0.0245271
2464.8	0.0243913
2463.9	0.0242581
2462.9	0.0241478
2461.9	0.0240492
2461.0	0.0239374
2460.0	0.0238188
2459.1	0.0237132
2458.1	0.0236239
2457.1	0.0235511
2456.2	0.0234862
2455.2	0.0234147
2454.2	0.0233402
2453.3	0.0232683
2452.3	0.0231940
2451.3	0.0231167
2450.4	0.0230478
2449.4	0.0229886
2448.4	0.0229234
2447.5	0.0228477
2446.5	0.0227709
2445.6	0.0226990
2444.6	0.0226333
2443.6	0.0225724
2442.7	0.0225082
2441.7	0.0224371
2440.7	0.0223674
2439.8	0.0223019
2438.8	0.0222303
2437.8	0.0221435
2436.9	0.0220526
2435.9	0.0219710
2434.9	0.0218888
2434.0	0.0218010
2433.0	0.0217077
2432.1	0.0215980
2431.1	0.0214732
2430.1	0.0213466
2429.2	0.0212223
2428.2	0.0210928
2427.2	0.0209568
2426.3	0.0208173
2425.3	0.0206746
2424.3	0.0205370
2423.4	0.0204112
2422.4	0.0203006
2421.4	0.0202048
2420.5	0.0200998
2419.5	0.0199731
2418.5	0.0198572
2417.6	0.0197748
2416.6	0.0197094
2415.7	0.0196438
2414.7	0.0195656
2413.7	0.0194783
2412.8	0.0194121
2411.8	0.0193697
2410.8	0.0193249
2409.9	0.0192680
2408.9	0.0192017
2407.9	0.0191348
2407.0	0.0190662
2406.0	0.0189812
2405.0	0.0188846
2404.1	0.0187947
2403.1	0.0187081
2402.2	0.0186103
2401.2	0.0185039
2400.2	0.0183917
2399.3	0.0182723
2398.3	0.0181599
2397.3	0.0180637
2396.4	0.0179779
2395.4	0.0178979
2394.4	0.0178171
2393.5	0.0177314
2392.5	0.0176459
2391.5	0.0175646
2390.6	0.0174962
2389.6	0.0174585
2388.7	0.0174420
2387.7	0.0174251
2386.7	0.0174165
2385.8	0.0174256
2384.8	0.0174509
2383.8	0.0174945
2382.9	0.0175498
2381.9	0.0176153
2380.9	0.0177089
2380.0	0.0178454
2379.0	0.0180133
2378.0	0.0181913
2377.1	0.0183763
2376.1	0.0185691
2375.2	0.0187693
2374.2	0.0189807
2373.2	0.0191821
2372.3	0.0193431
2371.3	0.0194705
2370.3	0.0195716
2369.4	0.0196295
2368.4	0.0196576
2367.4	0.0196822
2366.5	0.0196979
2365.5	0.0196909
2364.5	0.0196470
2363.6	0.0195670
2362.6	0.0194720
2361.7	0.0193645
2360.7	0.0192321
2359.7	0.0190724
2358.8	0.0188783
2357.8	0.0186359
2356.8	0.0183452
2355.9	0.0180137
2354.9	0.0176221
2353.9	0.0171508
2353.0	0.0166203
2352.0	0.0160476
2351.0	0.0154259
2350.1	0.0148450
2349.1	0.0145670
2348.2	0.0147502
2347.2	0.0152046
2346.2	0.0156508
2345.3	0.0159943
2344.3	0.0162556
2343.3	0.0164489
2342.4	0.0165759
2341.4	0.0166561
2340.4	0.0167038
2339.5	0.0167175
2338.5	0.0167105
2337.5	0.0167169
2336.6	0.0167402
2335.6	0.0167509
2334.7	0.0167563
2333.7	0.0167692
2332.7	0.0167876
2331.8	0.0168235
2330.8	0.0168723
2329.8	0.0169185
2328.9	0.0169658
2327.9	0.0170238
2326.9	0.0171036
2326.0	0.0172155
2325.0	0.0173340
2324.0	0.0174242
2323.1	0.0175078
2322.1	0.0176149
2321.2	0.0177334
2320.2	0.0178454
2319.2	0.0179631
2318.3	0.0181090
2317.3	0.0182754
2316.3	0.0184316
2315.4	0.0185732
2314.4	0.0187246
2313.4	0.0189022
2312.5	0.0191078
2311.5	0.0193175
2310.5	0.0194993
2309.6	0.0196547
2308.6	0.0197851
2307.7	0.0198839
2306.7	0.0199603
2305.7	0.0200153
2304.8	0.0200313
2303.8	0.0200092
2302.8	0.0199654
2301.9	0.0198875
2300.9	0.0197528
2299.9	0.0195627
2299.0	0.0193408
2298.0	0.0190951
2297.0	0.0188127
2296.1	0.0185101
2295.1	0.0182015
2294.2	0.0178734
2293.2	0.0175265
2292.2	0.0171824
2291.3	0.0168560
2290.3	0.0165297
2289.3	0.0161838
2288.4	0.0158383
2287.4	0.0155196
2286.4	0.0152271
2285.5	0.0149534
2284.5	0.0146883
2283.5	0.0144255
2282.6	0.0141819
2281.6	0.0139668
2280.7	0.0137740
2279.7	0.0135963
2278.7	0.0134282
2277.8	0.0132767
2276.8	0.0131479
2275.8	0.0130471
2274.9	0.0129817
2273.9	0.0129571
2272.9	0.0129809
2272.0	0.0130533
2271.0	0.0131634
2270.0	0.0133076
2269.1	0.0134993
2268.1	0.0137505
2267.1	0.0140570
2266.2	0.0144013
2265.2	0.0147735
2264.3	0.0151778
2263.3	0.0156129
2262.3	0.0160796
2261.4	0.0165739
2260.4	0.0170775
2259.4	0.0175588
2258.5	0.0179485
2257.5	0.0181945
2256.5	0.0183307
2255.6	0.0184070
2254.6	0.0184181
2253.6	0.0183533
2252.7	0.0182232
2251.7	0.0180121
2250.8	0.0176996
2249.8	0.0173220
2248.8	0.0169289
2247.9	0.0165039
2246.9	0.0160244
2245.9	0.0155206
2245.0	0.0150081
2244.0	0.0144910
2243.0	0.0140047
2242.1	0.0135651
2241.1	0.0131571
2240.1	0.0127618
2239.2	0.0123577
2238.2	0.0119594
2237.3	0.0116186
2236.3	0.0113499
2235.3	0.0111240
2234.4	0.0109313
2233.4	0.0107750
2232.4	0.0106311
2231.5	0.0104833
2230.5	0.0103424
2229.5	0.0102308
2228.6	0.0101637
2227.6	0.0101095
2226.6	0.0100306
2225.7	0.0099469
2224.7	0.0098768
2223.8	0.0098120
2222.8	0.0097611
2221.8	0.0097241
2220.9	0.0096854
2219.9	0.0096443
2218.9	0.0096049
2218.0	0.0095678
2217.0	0.0095370
2216.0	0.0095229
2215.1	0.0095232
2214.1	0.0095228
2213.1	0.0095162
2212.2	0.0094987
2211.2	0.0094745
2210.3	0.0094580
2209.3	0.0094482
2208.3	0.0094458
2207.4	0.0094660
2206.4	0.0095077
2205.4	0.0095497
2204.5	0.0095890
2203.5	0.0096514
2202.5	0.0097513
2201.6	0.0098830
2200.6	0.0100366
2199.6	0.0102063
2198.7	0.0103921
2197.7	0.0105868
2196.8	0.0107861
2195.8	0.0109943
2194.8	0.0112112
2193.9	0.0114425
2192.9	0.0116970
2191.9	0.0119751
2191.0	0.0122795
2190.0	0.0126213
2189.0	0.0130200
2188.1	0.0134725
2187.1	0.0139416
2186.1	0.0144044
2185.2	0.0148666
2184.2	0.0153478
2183.3	0.0158584
2182.3	0.0163682
2181.3	0.0168428
2180.4	0.0172829
2179.4	0.0177023
2178.4	0.0180955
2177.5	0.0184497
2176.5	0.0187698
2175.5	0.0190591
2174.6	0.0193204
2173.6	0.0195609
2172.6	0.0197729
2171.7	0.0199523
2170.7	0.0201129
2169.8	0.0202583
2168.8	0.0203753
2167.8	0.0204564
2166.9	0.0205084
2165.9	0.0205363
2164.9	0.0205367
2164.0	0.0204967
2163.0	0.0204062
2162.0	0.0202592
2161.1	0.0200577
2160.1	0.0198212
2159.1	0.0195579
2158.2	0.0192560
2157.2	0.0189109
2156.3	0.0185277
2155.3	0.0181178
2154.3	0.0176859
2153.4	0.0172315
2152.4	0.0167588
2151.4	0.0162696
2150.5	0.0157627
2149.5	0.0152558
2148.5	0.0147818
2147.6	0.0143538
2146.6	0.0139563
2145.6	0.0135677
2144.7	0.0131805
2143.7	0.0128199
2142.8	0.0125121
2141.8	0.0122414
2140.8	0.0119790
2139.9	0.0117292
2138.9	0.0115090
2137.9	0.0113118
2137.0	0.0111281
2136.0	0.0109647
2135.0	0.0108258
2134.1	0.0107011
2133.1	0.0105800
2132.1	0.0104587
2131.2	0.0103354
2130.2	0.0102155
2129.2	0.0101036
2128.3	0.0099934
2127.3	0.0098888
2126.4	0.0098062
2125.4	0.0097472
2124.4	0.0096885
2123.5	0.0096193
2122.5	0.0095658
2121.5	0.0095296
2120.6	0.0094735
2119.6	0.0094106
2118.6	0.0093761
2117.7	0.0093616
2116.7	0.0093508
2115.7	0.0093434
2114.8	0.0093438
2113.8	0.0093484
2112.9	0.0093427
2111.9	0.0093319
2110.9	0.0093407
2110.0	0.0093690
2109.0	0.0093874
2108.0	0.0093878
2107.1	0.0093897
2106.1	0.0094058
2105.1	0.0094277
2104.2	0.0094388
2103.2	0.0094441
2102.2	0.0094626
2101.3	0.0094941
2100.3	0.0095194
2099.4	0.0095326
2098.4	0.0095501
2097.4	0.0095824
2096.5	0.0096203
2095.5	0.0096491
2094.5	0.0096619
2093.6	0.0096738
2092.6	0.0097101
2091.6	0.0097675
2090.7	0.0098110
2089.7	0.0098288
2088.7	0.0098516
2087.8	0.0098867
2086.8	0.0099110
2085.9	0.0099294
2084.9	0.0099574
2083.9	0.0099949
2083.0	0.0100449
2082.0	0.0101022
2081.0	0.0101508
2080.1	0.0101925
2079.1	0.0102413
2078.1	0.0102949
2077.2	0.0103522
2076.2	0.0104308
2075.2	0.0105236
2074.3	0.0106027
2073.3	0.0106728
2072.4	0.0107532
2071.4	0.0108363
2070.4	0.0109083
2069.5	0.0109729
2068.5	0.0110344
2067.5	0.0110927
2066.6	0.0111510
2065.6	0.0112183
2064.6	0.0112995
2063.7	0.0113774
2062.7	0.0114414
2061.7	0.0114971
2060.8	0.0115552
2059.8	0.0116306
2058.9	0.0117153
2057.9	0.0117934
2056.9	0.0118778
2056.0	0.0119809
2055.0	0.0120987
2054.0	0.0122246
2053.1	0.0123458
2052.1	0.0124610
2051.1	0.0125827
2050.2	0.0127028
2049.2	0.0128074
2048.2	0.0129019
2047.3	0.0129832
2046.3	0.0130353
2045.4	0.0130621
2044.4	0.0130726
2043.4	0.0130645
2042.5	0.0130477
2041.5	0.0130195
2040.5	0.0129584
2039.6	0.0128766
2038.6	0.0127945
2037.6	0.0126976
2036.7	0.0125803
2035.7	0.0124639
2034.7	0.0123441
2033.8	0.0122076
2032.8	0.0120784
2031.9	0.0119609
2030.9	0.0118266
2029.9	0.0116853
2029.0	0.0115631
2028.0	0.0114522
2027.0	0.0113405
2026.1	0.0112323
2025.1	0.0111431
2024.1	0.0110848
2023.2	0.0110365
2022.2	0.0109724
2021.2	0.0109035
2020.3	0.0108472
2019.3	0.0107931
2018.4	0.0107264
2017.4	0.0106546
2016.4	0.0106025
2015.5	0.0105769
2014.5	0.0105560
2013.5	0.0105284
2012.6	0.0105032
2011.6	0.0104887
2010.6	0.0104823
2009.7	0.0104762
2008.7	0.0104728
2007.7	0.0104852
2006.8	0.0105158
2005.8	0.0105452
2004.9	0.0105653
2003.9	0.0105986
2002.9	0.0106592
2002.0	0.0107332
2001.0	0.0108065
2000.0	0.0108818
1999.1	0.0109569
1998.1	0.0110270
1997.1	0.0111002
1996.2	0.0111845
1995.2	0.0112675
1994.2	0.0113405
1993.3	0.0114328
1992.3	0.0115579
1991.3	0.0116764
1990.4	0.0117748
1989.4	0.0118799
1988.5	0.0120058
1987.5	0.0121451
1986.5	0.0122831
1985.6	0.0124160
1984.6	0.0125493
1983.6	0.0126811
1982.7	0.0128220
1981.7	0.0129917
1980.7	0.0131743
1979.8	0.0133305
1978.8	0.0134555
1977.8	0.0135803
1976.9	0.0137216
1975.9	0.0138736
1975.0	0.0140317
1974.0	0.0141964
1973.0	0.0143675
1972.1	0.0145408
1971.1	0.0147065
1970.1	0.0148626
1969.2	0.0150125
1968.2	0.0151494
1967.2	0.0152800
1966.3	0.0154171
1965.3	0.0155503
1964.3	0.0156780
1963.4	0.0158078
1962.4	0.0159308
1961.5	0.0160399
1960.5	0.0161490
1959.5	0.0162771
1958.6	0.0164106
1957.6	0.0165207
1956.6	0.0166031
1955.7	0.0166710
1954.7	0.0167398
1953.7	0.0168149
1952.8	0.0168933
1951.8	0.0169720
1950.8	0.0170401
1949.9	0.0170872
1948.9	0.0171250
1948.0	0.0171652
1947.0	0.0172033
1946.0	0.0172357
1945.1	0.0172613
1944.1	0.0172850
1943.1	0.0173047
1942.2	0.0173030
1941.2	0.0172767
1940.2	0.0172406
1939.3	0.0172080
1938.3	0.0171883
1937.3	0.0171833
1936.4	0.0171829
1935.4	0.0171676
1934.5	0.0171348
1933.5	0.0171093
1932.5	0.0171050
1931.6	0.0171125
1930.6	0.0171313
1929.6	0.0171621
1928.7	0.0171887
1927.7	0.0172089
1926.7	0.0172397
1925.8	0.0172925
1924.8	0.0173861
1923.8	0.0175309
1922.9	0.0176996
1921.9	0.0178626
1921.0	0.0180279
1920.0	0.0182314
1919.0	0.0184867
1918.1	0.0187462
1917.1	0.0189720
1916.1	0.0191928
1915.2	0.0194179
1914.2	0.0196292
1913.2	0.0198379
1912.3	0.0200513
1911.3	0.0202583
1910.3	0.0204524
1909.4	0.0206395
1908.4	0.0208354
1907.5	0.0210503
1906.5	0.0212801
1905.5	0.0215038
1904.6	0.0216995
1903.6	0.0218610
1902.6	0.0219702
1901.7	0.0220071
1900.7	0.0220053
1899.7	0.0219974
1898.8	0.0219584
1897.8	0.0218776
1896.8	0.0217815
1895.9	0.0216721
1894.9	0.0215254
1894.0	0.0213377
1893.0	0.0211370
1892.0	0.0209418
1891.1	0.0207500
1890.1	0.0205579
1889.1	0.0203771
1888.2	0.0202259
1887.2	0.0200990
1886.2	0.0199932
1885.3	0.0199309
1884.3	0.0199165
1883.3	0.0199326
1882.4	0.0199742
1881.4	0.0200559
1880.5	0.0201818
1879.5	0.0203328
1878.5	0.0204963
1877.6	0.0206732
1876.6	0.0208614
1875.6	0.0210603
1874.7	0.0212530
1873.7	0.0214091
1872.7	0.0215369
1871.8	0.0216702
1870.8	0.0218210
1869.8	0.0219615
1868.9	0.0220338
1867.9	0.0220272
1867.0	0.0219822
1866.0	0.0219196
1865.0	0.0218419
1864.1	0.0217493
1863.1	0.0216489
1862.1	0.0215497
1861.2	0.0214565
1860.2	0.0213710
1859.2	0.0212850
1858.3	0.0211920
1857.3	0.0210980
1856.3	0.0210250
1855.4	0.0209988
1854.4	0.0210189
1853.5	0.0210581
1852.5	0.0211031
1851.5	0.0211690
1850.6	0.0212739
1849.6	0.0214260
1848.6	0.0216089
1847.7	0.0218007
1846.7	0.0220316
1845.7	0.0223724
1844.8	0.0227986
1843.8	0.0231685
1842.8	0.0234689
1841.9	0.0238141
1840.9	0.0242258
1839.9	0.0246690
1839.0	0.0251354
1838.0	0.0256350
1837.1	0.0261845
1836.1	0.0267849
1835.1	0.0274062
1834.2	0.0280131
1833.2	0.0286066
1832.2	0.0292311
1831.3	0.0299383
1830.3	0.0307017
1829.3	0.0314419
1828.4	0.0321728
1827.4	0.0329807
1826.4	0.0339038
1825.5	0.0349137
1824.5	0.0359664
1823.6	0.0370851
1822.6	0.0383531
1821.6	0.0398157
1820.7	0.0414884
1819.7	0.0434065
1818.7	0.0456370
1817.8	0.0482503
1816.8	0.0512673
1815.8	0.0547184
1814.9	0.0586880
1813.9	0.0632553
1812.9	0.0684208
1812.0	0.0741330
1811.0	0.0803646
1810.1	0.0870147
1809.1	0.0938750
1808.1	0.1007734
1807.2	0.1074716
1806.2	0.1134808
1805.2	0.1184005
1804.3	0.1223103
1803.3	0.1255166
1802.3	0.1282371
1801.4	0.1307299
1800.4	0.1332326
1799.4	0.1358515
1798.5	0.1390317
1797.5	0.1434094
1796.6	0.1486788
1795.6	0.1528597
1794.6	0.1527882
1793.7	0.1471055
1792.7	0.1406237
1791.7	0.1414298
1790.8	0.1503406
1789.8	0.1606723
1788.8	0.1693040
1787.9	0.1782370
1786.9	0.1882472
1785.9	0.1985230
1785.0	0.2079871
1784.0	0.2155506
1783.1	0.2210952
1782.1	0.2250743
1781.1	0.2274745
1780.2	0.2280779
1779.2	0.2270917
1778.2	0.2248963
1777.3	0.2216962
1776.3	0.2176189
1775.3	0.2128308
1774.4	0.2073867
1773.4	0.2010984
1772.4	0.1939395
1771.5	0.1863404
1770.5	0.1788868
1769.6	0.1720188
1768.6	0.1658293
1767.6	0.1602437
1766.7	0.1554689
1765.7	0.1517741
1764.7	0.1492029
1763.8	0.1478076
1762.8	0.1477611
1761.8	0.1491829
1760.9	0.1521262
1759.9	0.1567459
1758.9	0.1632356
1758.0	0.1717663
1757.0	0.1825424
1756.1	0.1957394
1755.1	0.2116344
1754.1	0.2306791
1753.2	0.2533021
1752.2	0.2800955
1751.2	0.3116830
1750.3	0.3481418
1749.3	0.3897158
1748.3	0.4369673
1747.4	0.4896767
1746.4	0.5471581
1745.4	0.6083248
1744.5	0.6713044
1743.5	0.7337953
1742.6	0.7932478
1741.6	0.8485807
1740.6	0.9021130
1739.7	0.9592457
1738.7	1.0260432
1737.7	1.1070558
1736.8	1.2017891
1735.8	1.2992712
1734.8	1.3773665
1733.9	1.4072368
1732.9	1.3834406
1731.9	1.3379059
1731.0	1.2960142
1730.0	1.2617332
1729.1	1.2370071
1728.1	1.2220622
1727.1	1.2028302
1726.2	1.1610603
1725.2	1.0900207
1724.2	0.9959278
1723.3	0.8909200
1722.3	0.7858077
1721.3	0.6880613
1720.4	0.6014900
1719.4	0.5270953
1718.4	0.4633444
1717.5	0.4082023
1716.5	0.3610691
1715.6	0.3207242
1714.6	0.2851811
1713.6	0.2534494
1712.7	0.2250656
1711.7	0.1995329
1710.7	0.1766051
1709.8	0.1562073
1708.8	0.1382942
1707.8	0.1227247
1706.9	0.1092067
1705.9	0.0974930
1704.9	0.0874028
1704.0	0.0787136
1703.0	0.0712958
1702.0	0.0651279
1701.1	0.0599391
1700.1	0.0552447
1699.2	0.0509743
1698.2	0.0474439
1697.2	0.0447108
1696.3	0.0424223
1695.3	0.0401796
1694.3	0.0380413
1693.4	0.0362612
1692.4	0.0348354
1691.4	0.0336628
1690.5	0.0326761
1689.5	0.0318269
1688.5	0.0310753
1687.6	0.0304020
1686.6	0.0298941
1685.7	0.0296056
1684.7	0.0293026
1683.7	0.0287551
1682.8	0.0281196
1681.8	0.0276081
1680.8	0.0272420
1679.9	0.0269502
1678.9	0.0266772
1677.9	0.0264375
1677.0	0.0262885
1676.0	0.0262205
1675.0	0.0260603
1674.1	0.0257591
1673.1	0.0255092
1672.2	0.0253680
1671.2	0.0252478
1670.2	0.0251208
1669.3	0.0249429
1668.3	0.0246715
1667.3	0.0244043
1666.4	0.0242033
1665.4	0.0240297
1664.4	0.0238961
1663.5	0.0237747
1662.5	0.0235635
1661.5	0.0232650
1660.6	0.0229782
1659.6	0.0227264
1658.7	0.0224862
1657.7	0.0222556
1656.7	0.0220313
1655.8	0.0218649
1654.8	0.0218480
1653.8	0.0219235
1652.9	0.0217500
1651.9	0.0211640
1650.9	0.0205345
1650.0	0.0201524
1649.0	0.0199368
1648.0	0.0197669
1647.1	0.0196190
1646.1	0.0193998
1645.2	0.0190293
1644.2	0.0186406
1643.2	0.0183544
1642.3	0.0181287
1641.3	0.0179259
1640.3	0.0177516
1639.4	0.0175977
1638.4	0.0174545
1637.4	0.0173573
1636.5	0.0173469
1635.5	0.0172733
1634.5	0.0169746
1633.6	0.0166264
1632.6	0.0163996
1631.7	0.0162345
1630.7	0.0160842
1629.7	0.0159638
1628.8	0.0158743
1627.8	0.0157620
1626.8	0.0155860
1625.9	0.0154067
1624.9	0.0153102
1623.9	0.0152576
1623.0	0.0151131
1622.0	0.0148746
1621.0	0.0146581
1620.1	0.0144983
1619.1	0.0143880
1618.2	0.0144026
1617.2	0.0144816
1616.2	0.0143499
1615.3	0.0140321
1614.3	0.0138143
1613.3	0.0137367
1612.4	0.0136814
1611.4	0.0136223
1610.4	0.0135903
1609.5	0.0135815
1608.5	0.0135889
1607.5	0.0136212
1606.6	0.0136762
1605.6	0.0137553
1604.7	0.0138584
1603.7	0.0139645
1602.7	0.0140676
1601.8	0.0141912
1600.8	0.0143090
1599.8	0.0143823
1598.9	0.0144493
1597.9	0.0145459
1596.9	0.0146645
1596.0	0.0147894
1595.0	0.0148954
1594.0	0.0149716
1593.1	0.0150439
1592.1	0.0151274
1591.2	0.0152022
1590.2	0.0152452
1589.2	0.0152526
1588.3	0.0152467
1587.3	0.0152396
1586.3	0.0152193
1585.4	0.0151891
1584.4	0.0151863
1583.4	0.0152345
1582.5	0.0153014
1581.5	0.0153510
1580.5	0.0153696
1579.6	0.0153494
1578.6	0.0153157
1577.7	0.0153693
1576.7	0.0154779
1575.7	0.0154076
1574.8	0.0152098
1573.8	0.0151665
1572.8	0.0153219
1571.9	0.0156028
1570.9	0.0159907
1569.9	0.0164322
1569.0	0.0168553
1568.0	0.0172532
1567.0	0.0175683
1566.1	0.0176505
1565.1	0.0174447
1564.1	0.0170550
1563.2	0.0166607
1562.2	0.0164497
1561.3	0.0165370
1560.3	0.0167962
1559.3	0.0169647
1558.4	0.0169533
1557.4	0.0168249
1556.4	0.0167892
1555.5	0.0170308
1554.5	0.0173566
1553.5	0.0174626
1552.6	0.0173834
1551.6	0.0173108
1550.6	0.0173056
1549.7	0.0173430
1548.7	0.0174135
1547.8	0.0175495
1546.8	0.0178214
1545.8	0.0182477
1544.9	0.0187326
1543.9	0.0192537
1542.9	0.0199016
1542.0	0.0206172
1541.0	0.0213118
1540.0	0.0219817
1539.1	0.0224646
1538.1	0.0227347
1537.1	0.0230940
1536.2	0.0236974
1535.2	0.0244951
1534.3	0.0254270
1533.3	0.0264012
1532.3	0.0274219
1531.4	0.0286077
1530.4	0.0299880
1529.4	0.0315371
1528.5	0.0332024
1527.5	0.0348808
1526.5	0.0365450
1525.6	0.0381828
1524.6	0.0397558
1523.6	0.0413404
1522.7	0.0430054
1521.7	0.0446070
1520.8	0.0459071
1519.8	0.0468819
1518.8	0.0477347
1517.9	0.0485194
1516.9	0.0490493
1515.9	0.0492648
1515.0	0.0492647
1514.0	0.0490916
1513.0	0.0487625
1512.1	0.0482616
1511.1	0.0475926
1510.1	0.0468235
1509.2	0.0460086
1508.2	0.0451856
1507.3	0.0443059
1506.3	0.0432305
1505.3	0.0419489
1504.4	0.0406611
1503.4	0.0395461
1502.4	0.0386052
1501.5	0.0377715
1500.5	0.0370496
1499.5	0.0364388
1498.6	0.0358654
1497.6	0.0353511
1496.6	0.0349232
1495.7	0.0344665
1494.7	0.0339770
1493.8	0.0335705
1492.8	0.0332767
1491.8	0.0330770
1490.9	0.0329260
1489.9	0.0327549
1488.9	0.0325754
1488.0	0.0324305
1487.0	0.0322806
1486.0	0.0321005
1485.1	0.0319398
1484.1	0.0318125
1483.1	0.0316749
1482.2	0.0315127
1481.2	0.0313515
1480.3	0.0312058
1479.3	0.0310990
1478.3	0.0310806
1477.4	0.0310995
1476.4	0.0309991
1475.4	0.0308117
1474.5	0.0307439
1473.5	0.0308316
1472.5	0.0309438
1471.6	0.0309977
1470.6	0.0310575
1469.6	0.0312417
1468.7	0.0315535
1467.7	0.0319250
1466.8	0.0323747
1465.8	0.0329499
1464.8	0.0335881
1463.9	0.0342594
1462.9	0.0350835
1461.9	0.0361571
1461.0	0.0374930
1460.0	0.0390956
1459.0	0.0409800
1458.1	0.0431882
1457.1	0.0456570
1456.1	0.0481807
1455.2	0.0508189
1454.2	0.0538393
1453.3	0.0573010
1452.3	0.0611682
1451.3	0.0654709
1450.4	0.0702716
1449.4	0.0756672
1448.4	0.0817765
1447.5	0.0886868
1446.5	0.0965042
1445.5	0.1053900
1444.6	0.1154009
1443.6	0.1265399
1442.6	0.1388522
1441.7	0.1522413
1440.7	0.1664313
1439.8	0.1813180
1438.8	0.1971049
1437.8	0.2138152
1436.9	0.2310244
1435.9	0.2482726
1434.9	0.2656997
1434.0	0.2836895
1433.0	0.3018805
1432.0	0.3193469
1431.1	0.3352085
1430.1	0.3486924
1429.1	0.3591059
1428.2	0.3660064
1427.2	0.3694402
1426.3	0.3697730
1425.3	0.3674977
1424.3	0.3631108
1423.4	0.3570151
1422.4	0.3494038
1421.4	0.3402503
1420.5	0.3293404
1419.5	0.3163075
1418.5	0.3012996
1417.6	0.2848931
1416.6	0.2674847
1415.6	0.2495329
1414.7	0.2315632
1413.7	0.2140215
1412.7	0.1972978
1411.8	0.1816559
1410.8	0.1672127
1409.9	0.1540576
1408.9	0.1422478
1407.9	0.1317024
1407.0	0.1223241
1406.0	0.1140278
1405.0	0.1066835
1404.1	0.1002204
1403.1	0.0946043
1402.1	0.0896786
1401.2	0.0852872
1400.2	0.0813442
1399.2	0.0777027
1398.3	0.0742635
1397.3	0.0710162
1396.4	0.0679476
1395.4	0.0650247
1394.4	0.0622221
1393.5	0.0595655
1392.5	0.0571165
1391.5	0.0549202
1390.6	0.0530561
1389.6	0.0516015
1388.6	0.0504406
1387.7	0.0494659
1386.7	0.0487415
1385.7	0.0485879
1384.8	0.0487219
1383.8	0.0474485
1382.9	0.0445790
1381.9	0.0422682
1380.9	0.0412790
1380.0	0.0407972
1379.0	0.0404193
1378.0	0.0401261
1377.1	0.0399151
1376.1	0.0397814
1375.1	0.0397348
1374.2	0.0398117
1373.2	0.0400931
1372.2	0.0407131
1371.3	0.0418688
1370.3	0.0437124
1369.4	0.0461220
1368.4	0.0486686
1367.4	0.0507658
1366.5	0.0519494
1365.5	0.0521285
1364.5	0.0516023
1363.6	0.0507372
1362.6	0.0497531
1361.6	0.0488532
1360.7	0.0481396
1359.7	0.0474581
1358.7	0.0465085
1357.8	0.0450525
1356.8	0.0430207
1355.9	0.0405028
1354.9	0.0377019
1353.9	0.0348605
1353.0	0.0321816
1352.0	0.0297698
1351.0	0.0276632
1350.1	0.0258660
1349.1	0.0243400
1348.1	0.0230424
1347.2	0.0219370
1346.2	0.0209798
1345.2	0.0201358
1344.3	0.0193979
1343.3	0.0187619
1342.4	0.0182346
1341.4	0.0178330
1340.4	0.0175242
1339.5	0.0172488
1338.5	0.0169713
1337.5	0.0167026
1336.6	0.0164848
1335.6	0.0163640
1334.6	0.0163689
1333.7	0.0164529
1332.7	0.0165292
1331.7	0.0166079
1330.8	0.0168428
1329.8	0.0173406
1328.9	0.0180520
1327.9	0.0189595
1326.9	0.0201353
1326.0	0.0216352
1325.0	0.0235014
1324.0	0.0258079
1323.1	0.0286535
1322.1	0.0321366
1321.1	0.0363418
1320.2	0.0413388
1319.2	0.0471903
1318.2	0.0539737
1317.3	0.0617944
1316.3	0.0707569
1315.4	0.0809916
1314.4	0.0928236
1313.4	0.1069727
1312.5	0.1245296
1311.5	0.1465987
1310.5	0.1738961
1309.6	0.2064093
1308.6	0.2432077
1307.6	0.2827341
1306.7	0.3232912
1305.7	0.3633498
1304.7	0.4017661
1303.8	0.4378414
1302.8	0.4712364
1301.9	0.5018620
1300.9	0.5297340
1299.9	0.5548016
1299.0	0.5768985
1298.0	0.5956973
1297.0	0.6106485
1296.1	0.6211510
1295.1	0.6267000
1294.1	0.6269590
1293.2	0.6217287
1292.2	0.6110225
1291.2	0.5953972
1290.3	0.5759455
1289.3	0.5538655
1288.4	0.5300935
1287.4	0.5052851
1286.4	0.4799131
1285.5	0.4543113
1284.5	0.4285746
1283.5	0.4026358
1282.6	0.3766329
1281.6	0.3509785
1280.6	0.3261016
1279.7	0.3022374
1278.7	0.2795473
1277.7	0.2581869
1276.8	0.2380854
1275.8	0.2189963
1274.8	0.2008698
1273.9	0.1840174
1272.9	0.1686622
1272.0	0.1545652
1271.0	0.1414196
1270.0	0.1291246
1269.1	0.1175570
1268.1	0.1070138
1267.1	0.0983447
1266.2	0.0911254
1265.2	0.0837038
1264.2	0.0760144
1263.3	0.0692056
1262.3	0.0634357
1261.3	0.0582859
1260.4	0.0536074
1259.4	0.0493985
1258.5	0.0456464
1257.5	0.0423065
1256.5	0.0393354
1255.6	0.0366694
1254.6	0.0342517
1253.6	0.0320513
1252.7	0.0300515
1251.7	0.0282435
1250.7	0.0265821
1249.8	0.0250225
1248.8	0.0235831
1247.8	0.0222860
1246.9	0.0210956
1245.9	0.0199941
1245.0	0.0190127
1244.0	0.0181511
1243.0	0.0173609
1242.1	0.0166275
1241.1	0.0159949
1240.1	0.0154815
1239.2	0.0150388
1238.2	0.0146091
1237.2	0.0142322
1236.3	0.0139767
1235.3	0.0137744
1234.3	0.0135226
1233.4	0.0132628
1232.4	0.0131232
1231.5	0.0130981
1230.5	0.0130605
1229.5	0.0130181
1228.6	0.0130651
1227.6	0.0131829
1226.6	0.0133391
1225.7	0.0135504
1224.7	0.0137856
1223.7	0.0140593
1222.8	0.0144195
1221.8	0.0148381
1220.8	0.0152954
1219.9	0.0157717
1218.9	0.0162928
1218.0	0.0169949
1217.0	0.0179187
1216.0	0.0189774
1215.1	0.0201192
1214.1	0.0213485
1213.1	0.0227490
1212.2	0.0244202
1211.2	0.0262834
1210.2	0.0282354
1209.3	0.0303791
1208.3	0.0328242
1207.3	0.0354999
1206.4	0.0382723
1205.4	0.0410571
1204.5	0.0437388
1203.5	0.0462029
1202.5	0.0484432
1201.6	0.0504001
1200.6	0.0519169
1199.6	0.0529953
1198.7	0.0537519
1197.7	0.0541892
1196.7	0.0543259
1195.8	0.0541469
1194.8	0.0535528
1193.8	0.0529440
1192.9	0.0530404
1191.9	0.0538548
1191.0	0.0548573
1190.0	0.0554817
1189.0	0.0554121
1188.1	0.0554703
1187.1	0.0557407
1186.1	0.0553035
1185.2	0.0563661
1184.2	0.0599061
1183.2	0.0615176
1182.3	0.0601343
1181.3	0.0594873
1180.3	0.0603934
1179.4	0.0613033
1178.4	0.0616437
1177.5	0.0616432
1176.5	0.0616380
1175.5	0.0614882
1174.6	0.0608010
1173.6	0.0593240
1172.6	0.0571138
1171.7	0.0548533
1170.7	0.0533365
1169.7	0.0524206
1168.8	0.0510372
1167.8	0.0485739
1166.8	0.0458542
1165.9	0.0439580
1164.9	0.0429434
1164.0	0.0423139
1163.0	0.0416231
1162.0	0.0405687
1161.1	0.0390535
1160.1	0.0371890
1159.1	0.0351947
1158.2	0.0333428
1157.2	0.0318749
1156.2	0.0307748
1155.3	0.0298752
1154.3	0.0290380
1153.3	0.0281608
1152.4	0.0272200
1151.4	0.0262269
1150.5	0.0251967
1149.5	0.0241303
1148.5	0.0230496
1147.6	0.0220065
1146.6	0.0210213
1145.6	0.0200881
1144.7	0.0192104
1143.7	0.0184473
1142.7	0.0178359
1141.8	0.0173019
1140.8	0.0167481
1139.8	0.0162136
1138.9	0.0158090
1137.9	0.0155125
1136.9	0.0152423
1136.0	0.0149502
1135.0	0.0146129
1134.1	0.0142791
1133.1	0.0140246
1132.1	0.0138330
1131.2	0.0136671
1130.2	0.0135970
1129.2	0.0135958
1128.3	0.0134767
1127.3	0.0131934
1126.3	0.0128502
1125.4	0.0125542
1124.4	0.0123444
1123.4	0.0121291
1122.5	0.0118821
1121.5	0.0116795
1120.6	0.0114931
1119.6	0.0113274
1118.6	0.0112517
1117.7	0.0112547
1116.7	0.0112929
1115.7	0.0113020
1114.8	0.0112932
1113.8	0.0113561
1112.8	0.0114878
1111.9	0.0116799
1110.9	0.0119706
1109.9	0.0123044
1109.0	0.0125579
1108.0	0.0126951
1107.1	0.0128642
1106.1	0.0132021
1105.1	0.0135942
1104.2	0.0139230
1103.2	0.0142494
1102.2	0.0146079
1101.3	0.0149762
1100.3	0.0153597
1099.3	0.0157637
1098.4	0.0161544
1097.4	0.0165156
1096.4	0.0168998
1095.5	0.0173516
1094.5	0.0178219
1093.6	0.0182114
1092.6	0.0185549
1091.6	0.0190021
1090.7	0.0195715
1089.7	0.0201489
1088.7	0.0206460
1087.8	0.0210430
1086.8	0.0214003
1085.8	0.0218037
1084.9	0.0222490
1083.9	0.0226524
1082.9	0.0229035
1082.0	0.0230536
1081.0	0.0233879
1080.1	0.0239909
1079.1	0.0246590
1078.1	0.0252700
1077.2	0.0257580
1076.2	0.0260797
1075.2	0.0263697
1074.3	0.0267642
1073.3	0.0272861
1072.3	0.0279068
1071.4	0.0284547
1070.4	0.0288149
1069.4	0.0290643
1068.5	0.0292193
1067.5	0.0292913
1066.6	0.0294093
1065.6	0.0296173
1064.6	0.0298019
1063.7	0.0298793
1062.7	0.0298535
1061.7	0.0297612
1060.8	0.0296688
1059.8	0.0295354
1058.8	0.0292473
1057.9	0.0288768
1056.9	0.0286258
1055.9	0.0285211
1055.0	0.0282619
1054.0	0.0275807
1053.1	0.0267046
1052.1	0.0260830
1051.1	0.0260843
1050.2	0.0267080
1049.2	0.0269238
1048.2	0.0258459
1047.3	0.0243622
1046.3	0.0236017
1045.3	0.0233670
1044.4	0.0230809
1043.4	0.0227043
1042.4	0.0225114
1041.5	0.0225850
1040.5	0.0228033
1039.6	0.0230476
1038.6	0.0232560
1037.6	0.0235590
1036.7	0.0241180
1035.7	0.0248827
1034.7	0.0257683
1033.8	0.0268217
1032.8	0.0280355
1031.8	0.0292712
1030.9	0.0306152
1029.9	0.0322147
1028.9	0.0338874
1028.0	0.0355959
1027.0	0.0375205
1026.1	0.0395629
1025.1	0.0415118
1024.1	0.0433136
1023.2	0.0450511
1022.2	0.0467273
1021.2	0.0481229
1020.3	0.0492104
1019.3	0.0502487
1018.3	0.0513580
1017.4	0.0524989
1016.4	0.0536101
1015.4	0.0545851
1014.5	0.0552744
1013.5	0.0556288
1012.6	0.0557510
1011.6	0.0557272
1010.6	0.0555900
1009.7	0.0552023
1008.7	0.0544022
1007.7	0.0534518
1006.8	0.0526791
1005.8	0.0519940
1004.8	0.0511136
1003.9	0.0499927
1002.9	0.0488504
1001.9	0.0476198
1001.0	0.0461104
1000.0	0.0447390
999.1	0.0439816
998.1	0.0434160
997.1	0.0423802
996.2	0.0411549
995.2	0.0404040
994.2	0.0401385
993.3	0.0398135
992.3	0.0389052
991.3	0.0376773
990.4	0.0368775
989.4	0.0365812
988.4	0.0364958
987.5	0.0365870
986.5	0.0368090
985.5	0.0371845
984.6	0.0380117
983.6	0.0392032
982.7	0.0401133
981.7	0.0408015
980.7	0.0419430
979.8	0.0434630
978.8	0.0449099
977.8	0.0463871
976.9	0.0482789
975.9	0.0505227
974.9	0.0527058
974.0	0.0547913
973.0	0.0570649
972.0	0.0596718
971.1	0.0625181
970.1	0.0653724
969.2	0.0680404
968.2	0.0706564
967.2	0.0736235
966.3	0.0768359
965.3	0.0798332
964.3	0.0827965
963.4	0.0860834
962.4	0.0896450
961.4	0.0936604
960.5	0.0978430
959.5	0.1010882
958.5	0.1036566
957.6	0.1067361
956.6	0.1101576
955.7	0.1132500
954.7	0.1158504
953.7	0.1178796
952.8	0.1193487
951.8	0.1206481
950.8	0.1225545
949.9	0.1255475
948.9	0.1285366
947.9	0.1296997
947.0	0.1293756
946.0	0.1292626
945.0	0.1298924
944.1	0.1306218
943.1	0.1305002
942.2	0.1299044
941.2	0.1297755
940.2	0.1294253
939.3	0.1278924
938.3	0.1255504
937.3	0.1231987
936.4	0.1211863
935.4	0.1196938
934.4	0.1186577
933.5	0.1176133
932.5	0.1155421
931.5	0.1123250
930.6	0.1101376
929.6	0.1092695
928.7	0.1080188
927.7	0.1065168
926.7	0.1039000
925.8	0.0991841
924.8	0.0945083
923.8	0.0924190
922.9	0.0932698
921.9	0.0943804
920.9	0.0930987
920.0	0.0898199
919.0	0.0862082
918.0	0.0837798
917.1	0.0824249
916.1	0.0809829
915.2	0.0790810
914.2	0.0755694
913.2	0.0712866
912.3	0.0704752
911.3	0.0728827
910.3	0.0705611
909.4	0.0603026
908.4	0.0534990
907.4	0.0567857
906.5	0.0604297
905.5	0.0592250
904.5	0.0576792
903.6	0.0556998
902.6	0.0519552
901.7	0.0519017
900.7	0.0588458
899.7	0.0645579
898.8	0.0634542
897.8	0.0613614
896.8	0.0606295
895.9	0.0592887
894.9	0.0595931
893.9	0.0622101
893.0	0.0633609
892.0	0.0607185
891.0	0.0573918
890.1	0.0574855
889.1	0.0592109
888.2	0.0582154
887.2	0.0540431
886.2	0.0503451
885.3	0.0498060
884.3	0.0469121
883.3	0.0396143
882.4	0.0394682
881.4	0.0459488
880.4	0.0462663
879.5	0.0481652
878.5	0.0587802
877.5	0.0601692
876.6	0.0466264
875.6	0.0357373
874.7	0.0391190
873.7	0.0493274
872.7	0.0487251
871.8	0.0424049
870.8	0.0522192
869.8	0.0697658
868.9	0.0709206
867.9	0.0606417
866.9	0.0569809
866.0	0.0675901
865.0	0.0814692
864.0	0.0846625
863.1	0.0866464
862.1	0.0880431
861.2	0.0778852
860.2	0.0600388
859.2	0.0302055
858.3	0.0025312
857.3	0.0423527
856.3	0.1434116
855.4	0.2501330
854.4	0.3551262
853.4	0.5463983
852.5	0.6884972
851.5	0.3995147
850.5	0.1725523
849.6	0.0986245
848.6	0.0964373
847.6	0.1990346
846.7	0.1214917
845.7	-0.1791551
844.8	-0.4235727
843.8	-0.4078621
842.8	-0.2496409
841.9	-0.1353324
840.9	-0.2206016
839.9	-0.1818370
839.0	0.1478077
838.0	6.0000000
837.0	1.3715620
836.1	0.0837222
835.1	-0.0145400
834.1	0.0239538
833.2	-0.0920578
832.2	-0.2851339
831.3	-0.0766498
830.3	6.0000000
829.3	6.0000000
828.4	0.6024436
827.4	0.9153227
826.4	6.0000000
825.5	3.2394052
824.5	0.6675392
823.5	1.0857736
822.6	1.2455618
821.6	0.4530753
820.6	0.2902256
819.7	0.2809589
818.7	0.0796234
817.8	-0.1693632
816.8	-0.2574255
815.8	-0.1875129
814.9	-0.2107210
813.9	-0.2809178
812.9	-0.2454267
812.0	-0.1028427
811.0	0.1274877
810.0	0.3639072
809.1	0.2519128
808.1	0.0602368
807.1	-0.1086358
806.2	-0.0922671
805.2	0.0453932
804.3	0.0697834
803.3	-0.0980577
802.3	-0.7418944
801.4	-0.7747796
800.4	-0.2088482
799.4	0.1153508
798.5	0.2205647
797.5	0.5711707
796.5	0.7738701
795.6	0.5160548
794.6	0.2776826
793.6	0.2851381
792.7	0.6598877
791.7	6.0000000
790.8	6.0000000
789.8	6.0000000
788.8	0.1691471
787.9	-0.3357671
786.9	-0.2329581
785.9	-0.0109952
785.0	-0.0338061
784.0	-0.2482997
783.0	-0.2907400
782.1	-0.2965108
781.1	-0.3259728
780.1	-0.2601630
779.2	-0.1787136
778.2	-0.1925881
777.3	-0.2684955
776.3	-0.3506981
775.3	-0.1607473
774.4	0.0861182
773.4	0.0392670
772.4	-0.2405282
771.5	0.0669005
770.5	0.3279302
769.5	0.4046555
768.6	0.2168752
767.6	-0.0211835
766.6	0.0409187
765.7	0.1092293
764.7	0.0177972
763.8	0.0000615
762.8	0.1087012
761.8	0.0850144
760.9	0.0448193
759.9	0.1408985
758.9	0.2075544
758.0	0.0593452
757.0	-0.2113624
756.0	-0.2711579
755.1	0.0652607
754.1	0.4974878
753.1	0.3998823
752.2	0.0348185
751.2	-0.0922108
750.3	-0.0564441
749.3	0.1042101
748.3	0.2019256
747.4	0.0398693
746.4	-0.2722745
745.4	-0.3031833
744.5	-0.1477554
743.5	-0.0908324
742.5	-0.0264875
741.6	0.1748951
740.6	0.4672096
739.6	0.5842831
738.7	0.3769716
737.7	0.2009107
736.8	0.0467152
735.8	-0.0820946
734.8	-0.0935123
733.9	-0.0942945
732.9	-0.1344988
731.9	-0.1918621
731.0	-0.2271081
730.0	-0.1103802
729.0	0.0512480
728.1	0.0119432
727.1	-0.1442414
726.1	-0.1678564
725.2	-0.0095940
724.2	0.2468514
723.3	0.3965515
722.3	0.3349069
721.3	0.2103684
720.4	0.1300602
719.4	0.3515639
718.4	6.0000000
717.5	6.0000000
716.5	6.0000000
715.5	0.8124411
714.6	0.1765709
713.6	-0.4010748
712.6	-0.4780791
711.7	0.0012256
710.7	0.5065580
709.7	0.9752626
708.8	0.6058953
707.8	0.1637382
706.9	-0.0287224
705.9	-0.1401936
704.9	-0.0170126
704.0	0.3064755
703.0	0.4428283
702.0	0.2849347
701.1	0.1856267
700.1	0.2798805
699.1	0.3193610
698.2	0.2341320
697.2	0.2894078
696.2	0.3632130
695.3	0.3413682
694.3	0.2963703
693.4	0.1570964
692.4	0.0290503
691.4	0.0508931
690.5	0.1447610
689.5	0.0790357
688.5	-0.0467276
687.6	-0.0339366
686.6	0.0311832
685.6	0.1282224
684.7	0.2012604
683.7	0.1362270
682.7	-0.0206976
681.8	-0.1633537
680.8	-0.1193487
679.9	0.1748565
678.9	0.3960374
677.9	0.3814721
677.0	0.2855090
676.0	0.2303566
675.0	0.2289411
674.1	0.3090810
673.1	0.4824907
672.1	0.8038020
671.2	6.0000000
670.2	6.0000000
669.2	0.3642124
668.3	0.0454739
667.3	0.0924557
666.4	0.2544407
665.4	6.0000000
664.4	6.0000000
663.5	6.0000000
662.5	0.0929012
661.5	0.6668240
660.6	6.0000000
659.6	6.0000000
658.6	6.0000000
657.7	6.0000000
656.7	6.0000000
655.7	6.0000000
654.8	6.0000000
653.8	-0.3922620
652.9	0.1504071
651.9	0.4434354
650.9	0.4113052
650.0	0.3664016
649.0	0.4364453
648.0	0.2012454
647.1	-0.0610329
646.1	-0.0639629
645.1	0.0785785
644.2	0.1199567
643.2	0.1233073
642.2	-0.0149720
641.3	-0.1950504
640.3	-0.1743876
639.4	-0.0266331
638.4	0.4043052
637.4	6.0000000
636.5	6.0000000
635.5	6.0000000
634.5	1.2223227
633.6	0.5186183
632.6	0.4090523
631.6	0.2849626
630.7	0.4018212
629.7	0.4181364
628.7	0.1061724
627.8	-0.2375584
626.8	-0.3071280
625.9	-0.4939917
624.9	-0.3018236
623.9	0.4221827
623.0	0.4196119
622.0	-0.2205127
621.0	-0.0832361
620.1	-0.0369662
619.1	-0.0564497
618.1	0.0169057
617.2	0.0933272
616.2	0.0895470
615.2	0.0299623
614.3	0.2507706
613.3	6.0000000
612.4	6.0000000
611.4	6.0000000
610.4	6.0000000
609.5	6.0000000
608.5	6.0000000
607.5	6.0000000
606.6	-1.2625668
605.6	-0.3786234
604.6	-0.1689499
603.7	0.0450459
602.7	0.2855522
601.7	0.6036912
600.8	0.4872737
599.8	0.1629874
598.9	-0.0826077
597.9	-0.1680183
596.9	0.1493778
596.0	0.5826505
595.0	-0.1665143
594.0	6.0000000
593.1	6.0000000
592.1	6.0000000
591.1	-1.6090679
590.2	-0.2202515
589.2	-0.0865161
588.2	-0.3136744
587.3	0.0307730
586.3	0.7034790
585.4	6.0000000
584.4	6.0000000
583.4	0.4102348
582.5	0.1745878
581.5	0.2639495
580.5	0.3947558
579.6	0.8320121
578.6	6.0000000
577.6	0.6061170
576.7	-0.8388404
575.7	-0.5895447
574.7	-0.0697702
573.8	0.1834974
572.8	0.5780041
571.9	6.0000000
570.9	0.1555253
569.9	0.0592661
569.0	0.1816430
568.0	0.2867649
567.0	0.2052936
566.1	0.3610206
565.1	1.0205240
564.1	0.7956575
563.2	0.0716417
562.2	0.1366532
561.2	0.3153003
560.3	0.5299986
559.3	6.0000000
558.3	1.5032978
557.4	0.1947263
556.4	0.1613201
555.5	0.6389278
554.5	0.3181187
553.5	0.2525715
552.6	0.5145525
551.6	0.9908738
550.6	0.7901875
549.7	0.7494382
548.7	0.6273372
547.7	0.2654959
546.8	0.0713590
545.8	0.0703562
544.8	0.1196486
543.9	0.2425890
542.9	1.6805829
542.0	6.0000000
541.0	0.2944880
540.0	-0.0733715
539.1	-0.1633809
538.1	-0.1598277
537.1	-0.0266777
536.2	0.1184318
535.2	0.1508849
534.2	0.1172072
533.3	0.0027950
532.3	-0.0523391
531.3	0.3964093
530.4	6.0000000
529.4	6.0000000
528.5	6.0000000
527.5	6.0000000
526.5	6.0000000
525.6	0.6811267
524.6	0.0732845
523.6	-0.1940083
522.7	-0.1047353
521.7	0.5310836
520.7	0.6135418
519.8	0.5357910
518.8	0.6297330
517.8	0.6764283
516.9	0.4709613
515.9	0.1761025
515.0	0.0011262
514.0	0.0925438
513.0	0.1877585
512.1	0.1976690
511.1	0.2130039
510.1	0.1775741
509.2	0.1244545
508.2	0.1948336
507.2	0.4558121
506.3	1.1112818
505.3	6.0000000
504.3	6.0000000
503.4	0.4006499
502.4	0.1763863
501.5	0.1642218
500.5	0.1178440
499.5	0.0333621
498.6	0.0611714
497.6	0.3606906
496.6	0.3882326
495.7	0.3056631
494.7	0.3163953
493.7	0.3547168
492.8	0.3666551
491.8	0.4416920
490.8	0.4828054
489.9	0.4722298
488.9	0.4424159
488.0	0.3946111
487.0	0.3725064
486.0	0.3075161
485.1	0.1402014
484.1	0.0063739
483.1	0.0224067
482.2	0.0867327
481.2	0.1547152
480.2	0.2856555
479.3	0.3453438
478.3	0.2970025
477.3	0.1821501
476.4	0.0761705
475.4	0.0090377
474.5	-0.0140546
473.5	-0.0490760
472.5	-0.1124481
471.6	0.0062798
470.6	0.3136247
469.6	0.6529683
468.7	0.8310143
467.7	0.7454188
466.7	0.7419952
465.8	0.8338568
464.8	0.5341993
463.8	0.2048793
462.9	0.1006921
461.9	0.1169971
461.0	0.1924231
460.0	0.3124484
459.0	0.4645873
458.1	0.6428544
457.1	0.6670936
456.1	0.5752914
455.2	0.4599318
454.2	0.3515522
453.2	0.2597038
452.3	0.2542808
451.3	0.3453520
450.3	0.4797564
449.4	0.5859756
448.4	0.4756209
447.5	0.2456782
446.5	0.1726341
445.5	0.1922839
444.6	0.2500097
443.6	0.3369086
442.6	0.6162097
441.7	1.4653885
440.7	1.2415172
439.7	0.5629817
438.8	0.2949706
437.8	0.2264371
436.8	0.1877123
435.9	0.2274629
434.9	0.3926729
434.0	0.5306332
433.0	0.5958396
432.0	0.6733273
431.1	0.8426076
430.1	1.2102207
429.1	1.4042325
428.2	1.1182936
427.2	0.7767076
426.2	0.4887431
425.3	0.4178986
424.3	0.5835747
423.3	0.7378380
422.4	0.6231646
421.4	0.5430451
420.4	0.3794321
419.5	0.1366316
418.5	0.0943571
417.6	0.3728340
416.6	0.5221703
415.6	0.2856083
414.7	0.2086635
413.7	0.3722285
412.7	0.6898910
411.8	0.7401990
410.8	0.3526524
409.8	0.1608721
408.9	0.1478776
407.9	0.2907910
406.9	0.4799273
406.0	0.6332238
405.0	0.8889513
404.1	0.7645515
403.1	0.3157443
402.1	0.1703234
401.2	0.5472260
400.2	0.9949458
399.2	0.9050946
398.3	0.5017192
397.3	0.1533050
396.3	0.0171775
395.4	0.0894138
394.4	0.2815224
393.4	0.5143850
392.5	0.6039021
391.5	0.5419012
390.6	0.3667611
389.6	0.1991632
388.6	0.1121623
387.7	0.0027584
386.7	-0.1159263
385.7	-0.1032453
384.8	0.0033953
383.8	0.0531138
382.8	0.0827883
381.9	0.1804820
380.9	0.3347908
379.9	0.3880816
379.0	0.2202109
378.0	0.0227194
377.1	0.0305095
376.1	0.2028846
375.1	0.3110414
374.2	0.2310081
373.2	0.1197143
372.2	0.0315623
371.3	-0.0382293
370.3	0.1410916
369.3	0.5011843
