3997.9	0.0000543
3996.0	0.0000298
3994.1	0.0000238
3992.1	0.0000328
3990.2	0.0000443
3988.3	0.0000554
3986.3	0.0000618
3984.4	0.0000615
3982.5	0.0000538
3980.6	0.0000325
3978.6	0.0000038
3976.7	-0.0000097
3974.8	-0.0000006
3972.8	0.0000059
3970.9	-0.0000060
3969.0	-0.0000205
3967.1	-0.0000194
3965.1	0.0000044
3963.2	0.0000503
3961.3	0.0000959
3959.3	0.0001053
3957.4	0.0000763
3955.5	0.0000362
3953.6	0.0000041
3951.6	-0.0000109
3949.7	-0.0000094
3947.8	-0.0000028
3945.8	0.0000017
3943.9	0.0000062
3942.0	0.0000086
3940.1	0.0000003
3938.1	-0.0000093
3936.2	-0.0000072
3934.3	-0.0000012
3932.3	0.0000056
3930.4	0.0000146
3928.5	0.0000169
3926.6	0.0000072
3924.6	-0.0000017
3922.7	0.0000050
3920.8	0.0000157
3918.8	0.0000005
3916.9	-0.0000306
3915.0	-0.0000313
3913.1	-0.0000102
3911.1	-0.0000149
3909.2	-0.0000418
3907.3	-0.0000559
3905.3	-0.0000482
3903.4	-0.0000267
3901.5	-0.0000067
3899.6	-0.0000108
3897.6	-0.0000370
3895.7	-0.0000589
3893.8	-0.0000647
3891.8	-0.0000555
3889.9	-0.0000297
3888.0	0.0000008
3886.1	0.0000104
3884.1	-0.0000036
3882.2	-0.0000198
3880.3	-0.0000305
3878.3	-0.0000388
3876.4	-0.0000425
3874.5	-0.0000387
3872.6	-0.0000337
3870.6	-0.0000434
3868.7	-0.0000638
3866.8	-0.0000771
3864.8	-0.0000861
3862.9	-0.0000903
3861.0	-0.0000860
3859.1	-0.0000799
3857.1	-0.0000662
3855.2	-0.0000493
3853.3	-0.0000570
3851.3	-0.0000839
3849.4	-0.0000952
3847.5	-0.0000778
3845.6	-0.0000443
3843.6	-0.0000145
3841.7	-0.0000130
3839.8	-0.0000408
3837.8	-0.0000580
3835.9	-0.0000475
3834.0	-0.0000383
3832.1	-0.0000469
3830.1	-0.0000650
3828.2	-0.0000793
3826.3	-0.0000758
3824.3	-0.0000662
3822.4	-0.0000645
3820.5	-0.0000472
3818.6	-0.0000146
3816.6	-0.0000067
3814.7	-0.0000221
3812.8	-0.0000305
3810.8	-0.0000299
3808.9	-0.0000356
3807.0	-0.0000478
3805.1	-0.0000555
3803.1	-0.0000581
3801.2	-0.0000611
3799.3	-0.0000659
3797.3	-0.0000666
3795.4	-0.0000604
3793.5	-0.0000620
3791.6	-0.0000737
3789.6	-0.0000645
3787.7	-0.0000245
3785.8	0.0000043
3783.8	-0.0000010
3781.9	-0.0000117
3780.0	-0.0000104
3778.1	-0.0000098
3776.1	-0.0000100
3774.2	0.0000014
3772.3	0.0000166
3770.3	0.0000150
3768.4	-0.0000097
3766.5	-0.0000473
3764.6	-0.0000707
3762.6	-0.0000609
3760.7	-0.0000297
3758.8	0.0000014
3756.8	0.0000125
3754.9	-0.0000032
3753.0	-0.0000253
3751.1	-0.0000356
3749.1	-0.0000424
3747.2	-0.0000514
3745.3	-0.0000442
3743.3	-0.0000178
3741.4	-0.0000007
3739.5	-0.0000005
3737.6	-0.0000041
3735.6	-0.0000114
3733.7	-0.0000227
3731.8	-0.0000297
3729.8	-0.0000243
3727.9	-0.0000187
3726.0	-0.0000357
3724.1	-0.0000567
3722.1	-0.0000472
3720.2	-0.0000210
3718.3	-0.0000079
3716.3	-0.0000075
3714.4	-0.0000183
3712.5	-0.0000405
3710.6	-0.0000516
3708.6	-0.0000411
3706.7	-0.0000255
3704.8	-0.0000236
3702.8	-0.0000390
3700.9	-0.0000489
3699.0	-0.0000416
3697.1	-0.0000355
3695.1	-0.0000314
3693.2	-0.0000177
3691.3	-0.0000071
3689.3	-0.0000132
3687.4	-0.0000213
3685.5	-0.0000158
3683.6	-0.0000141
3681.6	-0.0000304
3679.7	-0.0000447
3677.8	-0.0000445
3675.8	-0.0000342
3673.9	-0.0000163
3672.0	-0.0000071
3670.1	-0.0000209
3668.1	-0.0000398
3666.2	-0.0000402
3664.3	-0.0000334
3662.3	-0.0000410
3660.4	-0.0000538
3658.5	-0.0000546
3656.6	-0.0000469
3654.6	-0.0000481
3652.7	-0.0000634
3650.8	-0.0000802
3648.8	-0.0000855
3646.9	-0.0000807
3645.0	-0.0000687
3643.1	-0.0000423
3641.1	-0.0000107
3639.2	0.0000020
3637.3	0.0000002
3635.3	-0.0000065
3633.4	-0.0000198
3631.5	-0.0000190
3629.6	-0.0000046
3627.6	-0.0000067
3625.7	-0.0000141
3623.8	-0.0000085
3621.8	-0.0000024
3619.9	0.0000035
3618.0	0.0000135
3616.1	0.0000192
3614.1	0.0000161
3612.2	0.0000047
3610.3	-0.0000111
3608.3	-0.0000251
3606.4	-0.0000343
3604.5	-0.0000355
3602.6	-0.0000188
3600.6	0.0000140
3598.7	0.0000322
3596.8	0.0000096
3594.8	-0.0000280
3592.9	-0.0000421
3591.0	-0.0000337
3589.1	-0.0000166
3587.1	0.0000011
3585.2	0.0000096
3583.3	0.0000044
3581.3	-0.0000070
3579.4	-0.0000099
3577.5	-0.0000035
3575.6	0.0000068
3573.6	0.0000264
3571.7	0.0000439
3569.8	0.0000357
3567.8	0.0000128
3565.9	0.0000017
3564.0	-0.0000012
3562.1	-0.0000082
3560.1	-0.0000072
3558.2	0.0000147
3556.3	0.0000409
3554.3	0.0000387
3552.4	0.0000050
3550.5	-0.0000223
3548.6	-0.0000117
3546.6	0.0000189
3544.7	0.0000278
3542.8	0.0000086
3540.8	-0.0000102
3538.9	-0.0000065
3537.0	0.0000153
3535.1	0.0000400
3533.1	0.0000590
3531.2	0.0000666
3529.3	0.0000660
3527.3	0.0000591
3525.4	0.0000386
3523.5	0.0000130
3521.6	0.0000004
3519.6	-0.0000002
3517.7	-0.0000028
3515.8	-0.0000031
3513.8	0.0000135
3511.9	0.0000392
3510.0	0.0000569
3508.1	0.0000666
3506.1	0.0000734
3504.2	0.0000814
3502.3	0.0000956
3500.3	0.0001050
3498.4	0.0000953
3496.5	0.0000822
3494.6	0.0000758
3492.6	0.0000647
3490.7	0.0000595
3488.8	0.0000713
3486.8	0.0000879
3484.9	0.0000976
3483.0	0.0000990
3481.1	0.0001046
3479.1	0.0001245
3477.2	0.0001546
3475.3	0.0001776
3473.3	0.0001729
3471.4	0.0001642
3469.5	0.0001897
3467.6	0.0002196
3465.6	0.0002061
3463.7	0.0001687
3461.8	0.0001497
3459.8	0.0001542
3457.9	0.0001615
3456.0	0.0001530
3454.1	0.0001357
3452.1	0.0001314
3450.2	0.0001411
3448.3	0.0001597
3446.3	0.0001861
3444.4	0.0001957
3442.5	0.0001674
3440.6	0.0001331
3438.6	0.0001197
3436.7	0.0001075
3434.8	0.0000931
3432.8	0.0000889
3430.9	0.0000855
3429.0	0.0000850
3427.1	0.0000980
3425.1	0.0001070
3423.2	0.0001031
3421.3	0.0001170
3419.3	0.0001583
3417.4	0.0001808
3415.5	0.0001600
3413.6	0.0001211
3411.6	0.0000799
3409.7	0.0000474
3407.8	0.0000502
3405.8	0.0000758
3403.9	0.0000777
3402.0	0.0000533
3400.1	0.0000414
3398.1	0.0000597
3396.2	0.0000890
3394.3	0.0001013
3392.3	0.0000968
3390.4	0.0001065
3388.5	0.0001429
3386.6	0.0001736
3384.6	0.0001689
3382.7	0.0001391
3380.8	0.0001105
3378.8	0.0000980
3376.9	0.0001028
3375.0	0.0001184
3373.1	0.0001307
3371.1	0.0001368
3369.2	0.0001535
3367.3	0.0001709
3365.3	0.0001664
3363.4	0.0001577
3361.5	0.0001523
3359.6	0.0001238
3357.6	0.0000850
3355.7	0.0000776
3353.8	0.0000902
3351.8	0.0000830
3349.9	0.0000653
3348.0	0.0000711
3346.1	0.0000895
3344.1	0.0000856
3342.2	0.0000574
3340.3	0.0000296
3338.3	0.0000232
3336.4	0.0000391
3334.5	0.0000484
3332.6	0.0000295
3330.6	0.0000052
3328.7	0.0000031
3326.8	0.0000192
3324.8	0.0000322
3322.9	0.0000280
3321.0	0.0000102
3319.1	-0.0000088
3317.1	-0.0000134
3315.2	0.0000014
3313.3	0.0000191
3311.3	0.0000299
3309.4	0.0000374
3307.5	0.0000371
3305.6	0.0000238
3303.6	0.0000019
3301.7	-0.0000175
3299.8	-0.0000227
3297.8	-0.0000079
3295.9	0.0000164
3294.0	0.0000316
3292.1	0.0000301
3290.1	0.0000111
3288.2	-0.0000195
3286.3	-0.0000438
3284.3	-0.0000486
3282.4	-0.0000356
3280.5	-0.0000133
3278.6	0.0000034
3276.6	-0.0000017
3274.7	-0.0000241
3272.8	-0.0000409
3270.8	-0.0000459
3268.9	-0.0000463
3267.0	-0.0000402
3265.1	-0.0000313
3263.1	-0.0000283
3261.2	-0.0000256
3259.3	-0.0000191
3257.3	-0.0000180
3255.4	-0.0000381
3253.5	-0.0000739
3251.6	-0.0000962
3249.6	-0.0000923
3247.7	-0.0000769
3245.8	-0.0000596
3243.8	-0.0000425
3241.9	-0.0000367
3240.0	-0.0000445
3238.1	-0.0000486
3236.1	-0.0000441
3234.2	-0.0000433
3232.3	-0.0000481
3230.3	-0.0000493
3228.4	-0.0000414
3226.5	-0.0000316
3224.6	-0.0000362
3222.6	-0.0000539
3220.7	-0.0000575
3218.8	-0.0000312
3216.8	0.0000047
3214.9	0.0000147
3213.0	-0.0000073
3211.1	-0.0000328
3209.1	-0.0000468
3207.2	-0.0000584
3205.3	-0.0000638
3203.3	-0.0000534
3201.4	-0.0000343
3199.5	-0.0000166
3197.6	-0.0000051
3195.6	-0.0000019
3193.7	-0.0000089
3191.8	-0.0000207
3189.8	-0.0000233
3187.9	-0.0000193
3186.0	-0.0000222
3184.1	-0.0000267
3182.1	-0.0000287
3180.2	-0.0000444
3178.3	-0.0000773
3176.3	-0.0001096
3174.4	-0.0001211
3172.5	-0.0001036
3170.6	-0.0000805
3168.6	-0.0000862
3166.7	-0.0001098
3164.8	-0.0001153
3162.8	-0.0000965
3160.9	-0.0000710
3159.0	-0.0000498
3157.1	-0.0000339
3155.1	-0.0000321
3153.2	-0.0000483
3151.3	-0.0000613
3149.3	-0.0000602
3147.4	-0.0000620
3145.5	-0.0000736
3143.6	-0.0000796
3141.6	-0.0000729
3139.7	-0.0000629
3137.8	-0.0000578
3135.8	-0.0000562
3133.9	-0.0000517
3132.0	-0.0000443
3130.1	-0.0000397
3128.1	-0.0000404
3126.2	-0.0000404
3124.3	-0.0000259
3122.3	-0.0000077
3120.4	-0.0000089
3118.5	-0.0000070
3116.6	0.0000195
3114.6	0.0000409
3112.7	0.0000353
3110.8	0.0000225
3108.8	0.0000283
3106.9	0.0000560
3105.0	0.0000875
3103.1	0.0001004
3101.1	0.0000868
3099.2	0.0000600
3097.3	0.0000401
3095.3	0.0000379
3093.4	0.0000488
3091.5	0.0000490
3089.6	0.0000267
3087.6	0.0000034
3085.7	-0.0000032
3083.8	0.0000003
3081.8	0.0000049
3079.9	0.0000062
3078.0	0.0000031
3076.1	0.0000014
3074.1	0.0000040
3072.2	0.0000036
3070.3	-0.0000062
3068.3	-0.0000191
3066.4	-0.0000215
3064.5	-0.0000024
3062.6	0.0000323
3060.6	0.0000635
3058.7	0.0000801
3056.8	0.0000861
3054.8	0.0000919
3052.9	0.0001093
3051.0	0.0001498
3049.1	0.0002060
3047.1	0.0002531
3045.2	0.0002857
3043.3	0.0003185
3041.3	0.0003548
3039.4	0.0003889
3037.5	0.0004170
3035.6	0.0004351
3033.6	0.0004425
3031.7	0.0004437
3029.8	0.0004429
3027.8	0.0004388
3025.9	0.0004340
3024.0	0.0004328
3022.1	0.0004259
3020.1	0.0004036
3018.2	0.0003739
3016.3	0.0003551
3014.3	0.0003570
3012.4	0.0003707
3010.5	0.0003834
3008.6	0.0003945
3006.6	0.0004094
3004.7	0.0004284
3002.8	0.0004529
3000.8	0.0004910
2998.9	0.0005407
2997.0	0.0005814
2995.1	0.0005936
2993.1	0.0005905
2991.2	0.0005936
2989.3	0.0005887
2987.3	0.0005695
2985.4	0.0005526
2983.5	0.0005313
2981.6	0.0004931
2979.6	0.0004457
2977.7	0.0004017
2975.8	0.0003639
2973.8	0.0003285
2971.9	0.0003032
2970.0	0.0002895
2968.1	0.0002710
2966.1	0.0002491
2964.2	0.0002355
2962.3	0.0002291
2960.3	0.0002335
2958.4	0.0002530
2956.5	0.0002816
2954.6	0.0003119
2952.6	0.0003436
2950.7	0.0003862
2948.8	0.0004450
2946.8	0.0005082
2944.9	0.0005619
2943.0	0.0006038
2941.1	0.0006394
2939.1	0.0006732
2937.2	0.0007048
2935.3	0.0007378
2933.3	0.0007776
2931.4	0.0008148
2929.5	0.0008421
2927.6	0.0008647
2925.6	0.0008757
2923.7	0.0008660
2921.8	0.0008446
2919.8	0.0008171
2917.9	0.0007775
2916.0	0.0007301
2914.1	0.0006841
2912.1	0.0006396
2910.2	0.0005956
2908.3	0.0005499
2906.3	0.0005000
2904.4	0.0004440
2902.5	0.0003847
2900.6	0.0003329
2898.6	0.0002911
2896.7	0.0002504
2894.8	0.0002135
2892.8	0.0001862
2890.9	0.0001561
2889.0	0.0001205
2887.1	0.0000872
2885.1	0.0000460
2883.2	0.0000005
2881.3	-0.0000241
2879.3	-0.0000315
2877.4	-0.0000413
2875.5	-0.0000480
2873.6	-0.0000391
2871.6	-0.0000246
2869.7	-0.0000143
2867.8	-0.0000007
2865.8	0.0000194
2863.9	0.0000356
2862.0	0.0000442
2860.1	0.0000493
2858.1	0.0000530
2856.2	0.0000596
2854.3	0.0000660
2852.3	0.0000519
2850.4	0.0000161
2848.5	-0.0000123
2846.6	-0.0000185
2844.6	-0.0000117
2842.7	-0.0000093
2840.8	-0.0000258
2838.8	-0.0000599
2836.9	-0.0000884
2835.0	-0.0000957
2833.1	-0.0001015
2831.1	-0.0001207
2829.2	-0.0001350
2827.3	-0.0001327
2825.3	-0.0001139
2823.4	-0.0000769
2821.5	-0.0000397
2819.6	-0.0000155
2817.6	0.0000093
2815.7	0.0000363
2813.8	0.0000554
2811.8	0.0000751
2809.9	0.0001079
2808.0	0.0001457
2806.1	0.0001676
2804.1	0.0001713
2802.2	0.0001704
2800.3	0.0001705
2798.3	0.0001729
2796.4	0.0001821
2794.5	0.0001891
2792.6	0.0001762
2790.6	0.0001441
2788.7	0.0001142
2786.8	0.0000987
2784.8	0.0000872
2782.9	0.0000678
2781.0	0.0000497
2779.1	0.0000401
2777.1	0.0000314
2775.2	0.0000230
2773.3	0.0000170
2771.3	0.0000079
2769.4	-0.0000003
2767.5	0.0000003
2765.6	0.0000046
2763.6	0.0000100
2761.7	0.0000288
2759.8	0.0000570
2757.8	0.0000722
2755.9	0.0000758
2754.0	0.0000847
2752.1	0.0001059
2750.1	0.0001391
2748.2	0.0001749
2746.3	0.0002037
2744.3	0.0002276
2742.4	0.0002481
2740.5	0.0002589
2738.6	0.0002621
2736.6	0.0002631
2734.7	0.0002609
2732.8	0.0002595
2730.8	0.0002663
2728.9	0.0002736
2727.0	0.0002674
2725.1	0.0002640
2723.1	0.0002846
2721.2	0.0003159
2719.3	0.0003435
2717.3	0.0003723
2715.4	0.0004042
2713.5	0.0004310
2711.6	0.0004524
2709.6	0.0004852
2707.7	0.0005304
2705.8	0.0005622
2703.8	0.0005776
2701.9	0.0006038
2700.0	0.0006466
2698.1	0.0006857
2696.1	0.0007110
2694.2	0.0007217
2692.3	0.0007149
2690.3	0.0006951
2688.4	0.0006726
2686.5	0.0006507
2684.6	0.0006215
2682.6	0.0005767
2680.7	0.0005278
2678.8	0.0004900
2676.8	0.0004669
2674.9	0.0004604
2673.0	0.0004583
2671.1	0.0004427
2669.1	0.0004204
2667.2	0.0004037
2665.3	0.0003899
2663.3	0.0003745
2661.4	0.0003644
2659.5	0.0003681
2657.6	0.0003911
2655.6	0.0004260
2653.7	0.0004592
2651.8	0.0005047
2649.8	0.0005863
2647.9	0.0006971
2646.0	0.0008107
2644.1	0.0009029
2642.1	0.0009528
2640.2	0.0009482
2638.3	0.0009020
2636.3	0.0008325
2634.4	0.0007511
2632.5	0.0006668
2630.6	0.0005774
2628.6	0.0004930
2626.7	0.0004361
2624.8	0.0003906
2622.8	0.0003266
2620.9	0.0002644
2619.0	0.0002392
2617.1	0.0002405
2615.1	0.0002385
2613.2	0.0002268
2611.3	0.0002167
2609.3	0.0002114
2607.4	0.0002101
2605.5	0.0002211
2603.6	0.0002420
2601.6	0.0002587
2599.7	0.0002673
2597.8	0.0002696
2595.8	0.0002772
2593.9	0.0003011
2592.0	0.0003290
2590.1	0.0003493
2588.1	0.0003758
2586.2	0.0004235
2584.3	0.0004840
2582.3	0.0005370
2580.4	0.0005772
2578.5	0.0006064
2576.6	0.0006315
2574.6	0.0006582
2572.7	0.0006654
2570.8	0.0006478
2568.8	0.0006211
2566.9	0.0005767
2565.0	0.0005176
2563.1	0.0004672
2561.1	0.0004222
2559.2	0.0003678
2557.3	0.0003145
2555.3	0.0002754
2553.4	0.0002504
2551.5	0.0002386
2549.6	0.0002349
2547.6	0.0002394
2545.7	0.0002493
2543.8	0.0002475
2541.8	0.0002278
2539.9	0.0002024
2538.0	0.0001856
2536.1	0.0001817
2534.1	0.0001768
2532.2	0.0001624
2530.3	0.0001550
2528.3	0.0001584
2526.4	0.0001619
2524.5	0.0001673
2522.6	0.0001685
2520.6	0.0001590
2518.7	0.0001473
2516.8	0.0001351
2514.8	0.0001249
2512.9	0.0001218
2511.0	0.0001214
2509.1	0.0001150
2507.1	0.0000966
2505.2	0.0000765
2503.3	0.0000738
2501.3	0.0000862
2499.4	0.0000968
2497.5	0.0001065
2495.6	0.0001193
2493.6	0.0001236
2491.7	0.0001141
2489.8	0.0001033
2487.8	0.0000967
2485.9	0.0000886
2484.0	0.0000862
2482.1	0.0000950
2480.1	0.0001112
2478.2	0.0001267
2476.3	0.0001234
2474.3	0.0001025
2472.4	0.0000821
2470.5	0.0000763
2468.6	0.0000907
2466.6	0.0001018
2464.7	0.0000915
2462.8	0.0000765
2460.8	0.0000763
2458.9	0.0000911
2457.0	0.0000997
2455.1	0.0000884
2453.1	0.0000741
2451.2	0.0000721
2449.3	0.0000779
2447.3	0.0000852
2445.4	0.0000861
2443.5	0.0000847
2441.6	0.0000830
2439.6	0.0000643
2437.7	0.0000428
2435.8	0.0000513
2433.8	0.0000786
2431.9	0.0000967
2430.0	0.0000916
2428.1	0.0000640
2426.1	0.0000419
2424.2	0.0000492
2422.3	0.0000650
2420.3	0.0000596
2418.4	0.0000407
2416.5	0.0000322
2414.6	0.0000345
2412.6	0.0000424
2410.7	0.0000564
2408.8	0.0000632
2406.8	0.0000576
2404.9	0.0000507
2403.0	0.0000537
2401.1	0.0000628
2399.1	0.0000574
2397.2	0.0000403
2395.3	0.0000331
2393.3	0.0000301
2391.4	0.0000229
2389.5	0.0000252
2387.6	0.0000449
2385.6	0.0000634
2383.7	0.0000616
2381.8	0.0000504
2379.8	0.0000432
2377.9	0.0000418
2376.0	0.0000463
2374.1	0.0000499
2372.1	0.0000496
2370.2	0.0000507
2368.3	0.0000497
2366.3	0.0000397
2364.4	0.0000236
2362.5	0.0000103
2360.6	0.0000071
2358.6	0.0000134
2356.7	0.0000211
2354.8	0.0000213
2352.8	0.0000193
2350.9	0.0000216
2349.0	0.0000236
2347.1	0.0000277
2345.1	0.0000402
2343.2	0.0000566
2341.3	0.0000691
2339.3	0.0000702
2337.4	0.0000498
2335.5	0.0000165
2333.6	0.0000008
2331.6	0.0000108
2329.7	0.0000282
2327.8	0.0000388
2325.8	0.0000368
2323.9	0.0000273
2322.0	0.0000276
2320.1	0.0000410
2318.1	0.0000480
2316.2	0.0000491
2314.3	0.0000587
2312.3	0.0000708
2310.4	0.0000729
2308.5	0.0000608
2306.6	0.0000449
2304.6	0.0000437
2302.7	0.0000509
2300.8	0.0000485
2298.8	0.0000372
2296.9	0.0000303
2295.0	0.0000361
2293.1	0.0000479
2291.1	0.0000487
2289.2	0.0000308
2287.3	0.0000020
2285.3	-0.0000232
2283.4	-0.0000277
2281.5	-0.0000115
2279.6	0.0000038
2277.6	0.0000050
2275.7	-0.0000020
2273.8	-0.0000017
2271.8	0.0000082
2269.9	0.0000097
2268.0	-0.0000002
2266.1	-0.0000044
2264.1	-0.0000025
2262.2	-0.0000008
2260.3	0.0000107
2258.3	0.0000275
2256.4	0.0000308
2254.5	0.0000207
2252.6	-0.0000008
2250.6	-0.0000293
2248.7	-0.0000455
2246.8	-0.0000424
2244.8	-0.0000373
2242.9	-0.0000437
2241.0	-0.0000502
2239.1	-0.0000449
2237.1	-0.0000387
2235.2	-0.0000497
2233.3	-0.0000729
2231.3	-0.0000837
2229.4	-0.0000802
2227.5	-0.0000864
2225.6	-0.0000975
2223.6	-0.0000915
2221.7	-0.0000739
2219.8	-0.0000666
2217.8	-0.0000728
2215.9	-0.0000746
2214.0	-0.0000654
2212.1	-0.0000531
2210.1	-0.0000447
2208.2	-0.0000545
2206.3	-0.0000799
2204.3	-0.0000899
2202.4	-0.0000737
2200.5	-0.0000442
2198.6	-0.0000171
2196.6	-0.0000134
2194.7	-0.0000302
2192.8	-0.0000377
2190.8	-0.0000337
2188.9	-0.0000385
2187.0	-0.0000491
2185.1	-0.0000474
2183.1	-0.0000316
2181.2	-0.0000150
2179.3	-0.0000038
2177.3	-0.0000069
2175.4	-0.0000310
2173.5	-0.0000540
2171.6	-0.0000584
2169.6	-0.0000571
2167.7	-0.0000606
2165.8	-0.0000643
2163.8	-0.0000610
2161.9	-0.0000524
2160.0	-0.0000453
2158.1	-0.0000397
2156.1	-0.0000323
2154.2	-0.0000242
2152.3	-0.0000219
2150.3	-0.0000326
2148.4	-0.0000433
2146.5	-0.0000320
2144.6	-0.0000105
2142.6	-0.0000040
2140.7	-0.0000138
2138.8	-0.0000254
2136.8	-0.0000226
2134.9	-0.0000038
2133.0	0.0000148
2131.1	0.0000220
2129.1	0.0000083
2127.2	-0.0000288
2125.3	-0.0000607
2123.3	-0.0000617
2121.4	-0.0000446
2119.5	-0.0000346
2117.6	-0.0000450
2115.6	-0.0000704
2113.7	-0.0000904
2111.8	-0.0000936
2109.8	-0.0000844
2107.9	-0.0000680
2106.0	-0.0000525
2104.1	-0.0000517
2102.1	-0.0000634
2100.2	-0.0000713
2098.3	-0.0000745
2096.3	-0.0000799
2094.4	-0.0000858
2092.5	-0.0000982
2090.6	-0.0001455
2088.6	-0.0002498
2086.7	-0.0003856
2084.8	-0.0004808
2082.8	-0.0004835
2080.9	-0.0004208
2079.0	-0.0003511
2077.1	-0.0003050
2075.1	-0.0002844
2073.2	-0.0002706
2071.3	-0.0002479
2069.3	-0.0002138
2067.4	-0.0001645
2065.5	-0.0001026
2063.6	-0.0000391
2061.6	0.0000198
2059.7	0.0000707
2057.8	0.0001092
2055.8	0.0001358
2053.9	0.0001533
2052.0	0.0001566
2050.1	0.0001401
2048.1	0.0001159
2046.2	0.0001053
2044.3	0.0001087
2042.3	0.0001089
2040.4	0.0000996
2038.5	0.0000852
2036.6	0.0000708
2034.6	0.0000653
2032.7	0.0000664
2030.8	0.0000614
2028.8	0.0000525
2026.9	0.0000496
2025.0	0.0000526
2023.1	0.0000562
2021.1	0.0000509
2019.2	0.0000354
2017.3	0.0000259
2015.3	0.0000314
2013.4	0.0000380
2011.5	0.0000321
2009.6	0.0000218
2007.6	0.0000169
2005.7	0.0000128
2003.8	0.0000065
2001.8	-0.0000037
1999.9	-0.0000149
1998.0	-0.0000183
1996.1	-0.0000149
1994.1	-0.0000095
1992.2	-0.0000025
1990.3	0.0000021
1988.3	0.0000014
1986.4	-0.0000027
1984.5	-0.0000105
1982.6	-0.0000195
1980.6	-0.0000237
1978.7	-0.0000223
1976.8	-0.0000171
1974.8	-0.0000138
1972.9	-0.0000180
1971.0	-0.0000226
1969.1	-0.0000225
1967.1	-0.0000228
1965.2	-0.0000185
1963.3	-0.0000034
1961.4	0.0000077
1959.4	0.0000004
1957.5	-0.0000078
1955.6	-0.0000003
1953.6	0.0000059
1951.7	-0.0000003
1949.8	-0.0000064
1947.9	-0.0000030
1945.9	0.0000062
1944.0	0.0000076
1942.1	0.0000004
1940.1	-0.0000018
1938.2	-0.0000029
1936.3	-0.0000020
1934.4	0.0000149
1932.4	0.0000382
1930.5	0.0000492
1928.6	0.0000460
1926.6	0.0000335
1924.7	0.0000222
1922.8	0.0000214
1920.9	0.0000276
1918.9	0.0000396
1917.0	0.0000581
1915.1	0.0000722
1913.1	0.0000784
1911.2	0.0000820
1909.3	0.0000764
1907.4	0.0000563
1905.4	0.0000389
1903.5	0.0000411
1901.6	0.0000524
1899.6	0.0000625
1897.7	0.0000744
1895.8	0.0000779
1893.9	0.0000623
1891.9	0.0000392
1890.0	0.0000281
1888.1	0.0000319
1886.1	0.0000402
1884.2	0.0000503
1882.3	0.0000608
1880.4	0.0000647
1878.4	0.0000631
1876.5	0.0000624
1874.6	0.0000729
1872.6	0.0000974
1870.7	0.0001178
1868.8	0.0001246
1866.9	0.0001259
1864.9	0.0001279
1863.0	0.0001363
1861.1	0.0001523
1859.1	0.0001716
1857.2	0.0001931
1855.3	0.0002123
1853.4	0.0002264
1851.4	0.0002405
1849.5	0.0002557
1847.6	0.0002688
1845.6	0.0002833
1843.7	0.0003016
1841.8	0.0003204
1839.9	0.0003337
1837.9	0.0003364
1836.0	0.0003383
1834.1	0.0003529
1832.1	0.0003680
1830.2	0.0003676
1828.3	0.0003588
1826.4	0.0003569
1824.4	0.0003655
1822.5	0.0003739
1820.6	0.0003694
1818.6	0.0003606
1816.7	0.0003646
1814.8	0.0003807
1812.9	0.0003940
1810.9	0.0003970
1809.0	0.0004009
1807.1	0.0004223
1805.1	0.0004658
1803.2	0.0005288
1801.3	0.0006135
1799.4	0.0007188
1797.4	0.0008339
1795.5	0.0009415
1793.6	0.0010196
1791.6	0.0010516
1789.7	0.0010293
1787.8	0.0009575
1785.9	0.0008578
1783.9	0.0007519
1782.0	0.0006582
1780.1	0.0005978
1778.1	0.0005803
1776.2	0.0005897
1774.3	0.0006078
1772.4	0.0006387
1770.4	0.0006949
1768.5	0.0007775
1766.6	0.0008866
1764.6	0.0010273
1762.7	0.0011989
1760.8	0.0013821
1758.9	0.0015359
1756.9	0.0016274
1755.0	0.0016565
1753.1	0.0016549
1751.1	0.0016765
1749.2	0.0017720
1747.3	0.0019664
1745.4	0.0023013
1743.4	0.0029338
1741.5	0.0042366
1739.6	0.0066789
1737.6	0.0102570
1735.7	0.0140389
1733.8	0.0166428
1731.9	0.0173727
1729.9	0.0166590
1728.0	0.0152887
1726.1	0.0137590
1724.1	0.0122749
1722.2	0.0108959
1720.3	0.0096090
1718.4	0.0084071
1716.4	0.0073309
1714.5	0.0064001
1712.6	0.0055881
1710.6	0.0048727
1708.7	0.0042340
1706.8	0.0036536
1704.9	0.0031362
1702.9	0.0026774
1701.0	0.0022642
1699.1	0.0019084
1697.1	0.0016138
1695.2	0.0013608
1693.3	0.0011428
1691.4	0.0009611
1689.4	0.0008128
1687.5	0.0006939
1685.6	0.0006004
1683.6	0.0005338
1681.7	0.0004942
1679.8	0.0004731
1677.9	0.0004580
1675.9	0.0004455
1674.0	0.0004441
1672.1	0.0004539
1670.1	0.0004663
1668.2	0.0004805
1666.3	0.0004956
1664.4	0.0005007
1662.4	0.0004916
1660.5	0.0004797
1658.6	0.0004677
1656.6	0.0004454
1654.7	0.0004189
1652.8	0.0004167
1650.9	0.0004381
1648.9	0.0004375
1647.0	0.0003986
1645.1	0.0003509
1643.1	0.0003106
1641.2	0.0002677
1639.3	0.0002201
1637.4	0.0001726
1635.4	0.0001235
1633.5	0.0000760
1631.6	0.0000418
1629.6	0.0000324
1627.7	0.0000435
1625.8	0.0000515
1623.9	0.0000460
1621.9	0.0000399
1620.0	0.0000341
1618.1	0.0000160
1616.1	-0.0000083
1614.2	-0.0000227
1612.3	-0.0000231
1610.4	-0.0000170
1608.4	-0.0000133
1606.5	-0.0000158
1604.6	-0.0000231
1602.6	-0.0000316
1600.7	-0.0000397
1598.8	-0.0000417
1596.9	-0.0000341
1594.9	-0.0000271
1593.0	-0.0000304
1591.1	-0.0000380
1589.1	-0.0000450
1587.2	-0.0000515
1585.3	-0.0000536
1583.4	-0.0000517
1581.4	-0.0000527
1579.5	-0.0000621
1577.6	-0.0000778
1575.6	-0.0000883
1573.7	-0.0000922
1571.8	-0.0000947
1569.9	-0.0000874
1567.9	-0.0000705
1566.0	-0.0000618
1564.1	-0.0000698
1562.1	-0.0000852
1560.2	-0.0000917
1558.3	-0.0000790
1556.4	-0.0000501
1554.4	-0.0000164
1552.5	0.0000080
1550.6	0.0000169
1548.6	0.0000158
1546.7	0.0000139
1544.8	0.0000163
1542.9	0.0000214
1540.9	0.0000354
1539.0	0.0000714
1537.1	0.0001150
1535.1	0.0001364
1533.2	0.0001422
1531.3	0.0001573
1529.4	0.0001764
1527.4	0.0001837
1525.5	0.0001783
1523.6	0.0001647
1521.6	0.0001512
1519.7	0.0001450
1517.8	0.0001375
1515.9	0.0001196
1513.9	0.0001071
1512.0	0.0001136
1510.1	0.0001215
1508.1	0.0001133
1506.2	0.0001038
1504.3	0.0001108
1502.4	0.0001236
1500.4	0.0001252
1498.5	0.0001168
1496.6	0.0001161
1494.6	0.0001313
1492.7	0.0001426
1490.8	0.0001377
1488.9	0.0001327
1486.9	0.0001344
1485.0	0.0001392
1483.1	0.0001560
1481.1	0.0001888
1479.2	0.0002227
1477.3	0.0002519
1475.4	0.0002863
1473.4	0.0003281
1471.5	0.0003768
1469.6	0.0004354
1467.6	0.0004972
1465.7	0.0005650
1463.8	0.0006498
1461.9	0.0007428
1459.9	0.0008400
1458.0	0.0009627
1456.1	0.0011191
1454.1	0.0012897
1452.2	0.0014653
1450.3	0.0016579
1448.4	0.0018646
1446.4	0.0020667
1444.5	0.0022471
1442.6	0.0023868
1440.6	0.0024818
1438.7	0.0025362
1436.8	0.0025322
1434.9	0.0024559
1432.9	0.0023269
1431.0	0.0021935
1429.1	0.0021116
1427.1	0.0021194
1425.2	0.0022145
1423.3	0.0023413
1421.4	0.0024366
1419.4	0.0024851
1417.5	0.0024923
1415.6	0.0024435
1413.6	0.0023240
1411.7	0.0021502
1409.8	0.0019602
1407.9	0.0017747
1405.9	0.0015864
1404.0	0.0013945
1402.1	0.0012165
1400.1	0.0010639
1398.2	0.0009356
1396.3	0.0008200
1394.4	0.0007091
1392.4	0.0006136
1390.5	0.0005444
1388.6	0.0004950
1386.6	0.0004555
1384.7	0.0004184
1382.8	0.0003898
1380.9	0.0004059
1378.9	0.0004913
1377.0	0.0006298
1375.1	0.0008072
1373.1	0.0010212
1371.2	0.0012426
1369.3	0.0014492
1367.4	0.0016531
1365.4	0.0018184
1363.5	0.0018528
1361.6	0.0017136
1359.6	0.0014406
1357.7	0.0011168
1355.8	0.0008244
1353.9	0.0006020
1351.9	0.0004481
1350.0	0.0003502
1348.1	0.0002949
1346.1	0.0002663
1344.2	0.0002530
1342.3	0.0002510
1340.4	0.0002517
1338.4	0.0002475
1336.5	0.0002538
1334.6	0.0002936
1332.6	0.0003727
1330.7	0.0004852
1328.8	0.0006519
1326.9	0.0009340
1324.9	0.0013818
1323.0	0.0020336
1321.1	0.0029534
1319.1	0.0041373
1317.2	0.0053592
1315.3	0.0062532
1313.4	0.0066147
1311.4	0.0065040
1309.5	0.0060754
1307.6	0.0054590
1305.6	0.0047594
1303.7	0.0040481
1301.8	0.0033682
1299.9	0.0027630
1297.9	0.0022706
1296.0	0.0019072
1294.1	0.0016677
1292.1	0.0015335
1290.2	0.0014668
1288.3	0.0014259
1286.4	0.0013904
1284.4	0.0013379
1282.5	0.0012513
1280.6	0.0011471
1278.6	0.0010501
1276.7	0.0009774
1274.8	0.0009328
1272.9	0.0008994
1270.9	0.0008668
1269.0	0.0008358
1267.1	0.0008045
1265.1	0.0007726
1263.2	0.0007374
1261.3	0.0007016
1259.4	0.0006789
1257.4	0.0006691
1255.5	0.0006586
1253.6	0.0006373
1251.6	0.0006101
1249.7	0.0005970
1247.8	0.0005998
1245.9	0.0005950
1243.9	0.0005724
1242.0	0.0005508
1240.1	0.0005396
1238.1	0.0005243
1236.2	0.0004998
1234.3	0.0004683
1232.4	0.0004272
1230.4	0.0003756
1228.5	0.0003192
1226.6	0.0002695
1224.6	0.0002265
1222.7	0.0001858
1220.8	0.0001569
1218.9	0.0001483
1216.9	0.0001537
1215.0	0.0001641
1213.1	0.0001670
1211.1	0.0001451
1209.2	0.0001061
1207.3	0.0000745
1205.4	0.0000591
1203.4	0.0000558
1201.5	0.0000543
1199.6	0.0000474
1197.6	0.0000419
1195.7	0.0000417
1193.8	0.0000399
1191.9	0.0000374
1189.9	0.0000391
1188.0	0.0000422
1186.1	0.0000391
1184.1	0.0000258
1182.2	0.0000083
1180.3	-0.0000068
1178.4	-0.0000128
1176.4	-0.0000037
1174.5	0.0000082
1172.6	0.0000174
1170.6	0.0000354
1168.7	0.0000466
1166.8	0.0000215
1164.9	-0.0000177
1162.9	-0.0000314
1161.0	-0.0000301
1159.1	-0.0000373
1157.1	-0.0000424
1155.2	-0.0000255
1153.3	-0.0000086
1151.4	-0.0000164
1149.4	-0.0000230
1147.5	-0.0000214
1145.6	-0.0000284
1143.6	-0.0000267
1141.7	-0.0000137
1139.8	-0.0000052
1137.9	-0.0000007
1135.9	-0.0000085
1134.0	-0.0000132
1132.1	0.0000115
1130.1	0.0000181
1128.2	-0.0000189
1126.3	-0.0000387
1124.4	-0.0000239
1122.4	-0.0000092
1120.5	-0.0000049
1118.6	-0.0000108
1116.6	-0.0000241
1114.7	-0.0000285
1112.8	-0.0000191
1110.9	-0.0000107
1108.9	-0.0000177
1107.0	-0.0000400
1105.1	-0.0000464
1103.1	-0.0000283
1101.2	-0.0000272
1099.3	-0.0000493
1097.4	-0.0000631
1095.4	-0.0000507
1093.5	-0.0000316
1091.6	-0.0000417
1089.6	-0.0000684
1087.7	-0.0000836
1085.8	-0.0000772
1083.9	-0.0000514
1081.9	-0.0000387
1080.0	-0.0000539
1078.1	-0.0000643
1076.1	-0.0000459
1074.2	-0.0000174
1072.3	-0.0000072
1070.4	-0.0000088
1068.4	0.0000073
1066.5	0.0000672
1064.6	0.0001687
1062.6	0.0002981
1060.7	0.0004693
1058.8	0.0006924
1056.9	0.0009353
1054.9	0.0011339
1053.0	0.0012182
1051.1	0.0011627
1049.1	0.0010117
1047.2	0.0008212
1045.3	0.0006299
1043.4	0.0004794
1041.4	0.0003769
1039.5	0.0003061
1037.6	0.0002770
1035.6	0.0003005
1033.7	0.0003829
1031.8	0.0005307
1029.9	0.0007267
1027.9	0.0009425
1026.0	0.0011539
1024.1	0.0013067
1022.1	0.0013479
1020.2	0.0012823
1018.3	0.0011298
1016.4	0.0009280
1014.4	0.0007408
1012.5	0.0005976
1010.6	0.0004930
1008.6	0.0004111
1006.7	0.0003373
1004.8	0.0002681
1002.9	0.0002195
1000.9	0.0002179
999.0	0.0002690
997.1	0.0003468
995.1	0.0004130
993.2	0.0004551
991.3	0.0004989
989.4	0.0005919
987.4	0.0007330
985.5	0.0008725
983.6	0.0010177
981.6	0.0011909
979.7	0.0013628
977.8	0.0015361
975.9	0.0017514
973.9	0.0019901
972.0	0.0021999
970.1	0.0023674
968.1	0.0024972
966.2	0.0026012
964.3	0.0026784
962.4	0.0027026
960.4	0.0026984
958.5	0.0026987
956.6	0.0026711
954.6	0.0025979
952.7	0.0025094
950.8	0.0024232
948.9	0.0023378
946.9	0.0022341
945.0	0.0020996
943.1	0.0019552
941.1	0.0018264
939.2	0.0017080
937.3	0.0015652
935.4	0.0014111
933.4	0.0013135
931.5	0.0012709
929.6	0.0012146
927.6	0.0011208
925.7	0.0010186
923.8	0.0009326
921.9	0.0008607
919.9	0.0007933
918.0	0.0007296
916.1	0.0006655
914.1	0.0006024
912.2	0.0005800
910.3	0.0006118
908.4	0.0006402
906.4	0.0006269
904.5	0.0005887
902.6	0.0005538
900.6	0.0005538
898.7	0.0005917
896.8	0.0005996
894.9	0.0005286
892.9	0.0004294
891.0	0.0003679
889.1	0.0003536
887.1	0.0003569
885.2	0.0003404
883.3	0.0002930
881.4	0.0002505
879.4	0.0002549
877.5	0.0002763
875.6	0.0002581
873.6	0.0002204
871.7	0.0001720
869.8	0.0000664
867.9	-0.0000284
865.9	-0.0000221
864.0	0.0000244
862.1	0.0000397
860.1	-0.0000002
858.2	-0.0000622
856.3	-0.0000450
854.4	0.0000260
852.4	0.0000441
850.5	0.0000025
848.6	-0.0000582
