3997.9	0.0000118
3996.0	0.0000034
3994.1	0.0000014
3992.1	0.0000141
3990.2	0.0000196
3988.3	0.0000060
3986.3	-0.0000024
3984.4	0.0000095
3982.5	0.0000285
3980.6	0.0000310
3978.6	0.0000179
3976.7	0.0000112
3974.8	0.0000106
3972.8	0.0000053
3970.9	-0.0000009
3969.0	-0.0000051
3967.1	-0.0000052
3965.1	0.0000140
3963.2	0.0000568
3961.3	0.0000876
3959.3	0.0000819
3957.4	0.0000613
3955.5	0.0000389
3953.6	0.0000130
3951.6	-0.0000031
3949.7	0.0000104
3947.8	0.0000402
3945.8	0.0000511
3943.9	0.0000485
3942.0	0.0000363
3940.1	0.0000180
3938.1	0.0000162
3936.2	0.0000240
3934.3	0.0000283
3932.3	0.0000184
3930.4	-0.0000017
3928.5	-0.0000094
3926.6	-0.0000078
3924.6	-0.0000092
3922.7	-0.0000069
3920.8	0.0000150
3918.8	0.0000296
3916.9	0.0000201
3915.0	0.0000070
3913.1	0.0000288
3911.1	0.0000420
3909.2	0.0000093
3907.3	-0.0000297
3905.3	-0.0000259
3903.4	-0.0000114
3901.5	0.0000002
3899.6	0.0000169
3897.6	-0.0000096
3895.7	-0.0000512
3893.8	-0.0000490
3891.8	-0.0000130
3889.9	-0.0000196
3888.0	-0.0000075
3886.1	0.0000550
3884.1	0.0000470
3882.2	0.0000385
3880.3	0.0000403
3878.3	-0.0000095
3876.4	-0.0000211
3874.5	0.0000025
3872.6	0.0000115
3870.6	0.0000466
3868.7	0.0000103
3866.8	-0.0000212
3864.8	0.0000116
3862.9	0.0000135
3861.0	0.0000041
3859.1	-0.0000444
3857.1	-0.0000863
3855.2	0.0000061
3853.3	0.0000666
3851.3	-0.0000271
3849.4	-0.0000764
3847.5	-0.0000597
3845.6	-0.0000303
3843.6	0.0000022
3841.7	0.0000065
3839.8	0.0000195
3837.8	0.0000325
3835.9	-0.0000043
3834.0	-0.0000023
3832.1	0.0000191
3830.1	0.0000029
3828.2	-0.0000028
3826.3	-0.0000041
3824.3	-0.0000162
3822.4	0.0000364
3820.5	0.0000473
3818.6	0.0000268
3816.6	0.0000829
3814.7	0.0000373
3812.8	-0.0000266
3810.8	-0.0000215
3808.9	0.0000006
3807.0	0.0000139
3805.1	-0.0000600
3803.1	-0.0000428
3801.2	0.0000221
3799.3	-0.0000239
3797.3	-0.0000163
3795.4	0.0000135
3793.5	0.0000107
3791.6	0.0000021
3789.6	0.0000022
3787.7	0.0000262
3785.8	0.0000511
3783.8	0.0000502
3781.9	0.0000380
3780.0	0.0000270
3778.1	-0.0000003
3776.1	-0.0000013
3774.2	0.0000254
3772.3	0.0000506
3770.3	0.0000616
3768.4	0.0000237
3766.5	0.0000022
3764.6	-0.0000086
3762.6	-0.0000241
3760.7	-0.0000066
3758.8	0.0000008
3756.8	-0.0000229
3754.9	-0.0000525
3753.0	-0.0000225
3751.1	0.0000012
3749.1	-0.0000342
3747.2	-0.0000798
3745.3	0.0000256
3743.3	0.0000122
3741.4	-0.0000792
3739.5	-0.0000600
3737.6	-0.0000108
3735.6	-0.0000033
3733.7	-0.0000229
3731.8	-0.0000271
3729.8	-0.0000601
3727.9	-0.0000331
3726.0	0.0000052
3724.1	-0.0000020
3722.1	0.0000003
3720.2	0.0000083
3718.3	0.0000092
3716.3	-0.0000098
3714.4	-0.0000089
3712.5	0.0000185
3710.6	-0.0000002
3708.6	-0.0000157
3706.7	-0.0000036
3704.8	0.0000089
3702.8	0.0000180
3700.9	0.0000147
3699.0	0.0000166
3697.1	0.0000345
3695.1	0.0000179
3693.2	-0.0000124
3691.3	-0.0000219
3689.3	0.0000067
3687.4	-0.0000069
3685.5	-0.0000362
3683.6	-0.0000061
3681.6	-0.0000042
3679.7	-0.0000287
3677.8	-0.0000018
3675.8	0.0000623
3673.9	-0.0000040
3672.0	-0.0000203
3670.1	0.0000177
3668.1	-0.0000247
3666.2	-0.0000289
3664.3	-0.0000006
3662.3	0.0000063
3660.4	0.0000007
3658.5	0.0000232
3656.6	0.0000681
3654.6	0.0000299
3652.7	-0.0000241
3650.8	-0.0000121
3648.8	-0.0000154
3646.9	-0.0000505
3645.0	-0.0000598
3643.1	-0.0000248
3641.1	0.0000155
3639.2	0.0000411
3637.3	0.0000509
3635.3	0.0000358
3633.4	-0.0000174
3631.5	-0.0000394
3629.6	0.0000211
3627.6	0.0000013
3625.7	-0.0000421
3623.8	-0.0000246
3621.8	-0.0000048
3619.9	0.0000259
3618.0	0.0000341
3616.1	0.0000258
3614.1	0.0000323
3612.2	0.0000301
3610.3	0.0000309
3608.3	0.0000232
3606.4	-0.0000167
3604.5	-0.0000415
3602.6	-0.0000441
3600.6	-0.0000310
3598.7	-0.0000061
3596.8	0.0000172
3594.8	0.0000143
3592.9	-0.0000141
3591.0	-0.0000282
3589.1	-0.0000092
3587.1	-0.0000066
3585.2	-0.0000167
3583.3	-0.0000055
3581.3	0.0000049
3579.4	0.0000188
3577.5	0.0000541
3575.6	0.0000878
3573.6	0.0000945
3571.7	0.0000734
3569.8	0.0000563
3567.8	0.0000566
3565.9	0.0000311
3564.0	-0.0000092
3562.1	-0.0000295
3560.1	-0.0000287
3558.2	-0.0000074
3556.3	0.0000204
3554.3	0.0000298
3552.4	0.0000145
3550.5	-0.0000142
3548.6	-0.0000241
3546.6	-0.0000076
3544.7	0.0000070
3542.8	-0.0000008
3540.8	-0.0000229
3538.9	-0.0000337
3537.0	-0.0000264
3535.1	-0.0000130
3533.1	0.0000088
3531.2	0.0000414
3529.3	0.0000659
3527.3	0.0000534
3525.4	0.0000100
3523.5	-0.0000171
3521.6	-0.0000077
3519.6	0.0000046
3517.7	-0.0000086
3515.8	-0.0000214
3513.8	-0.0000148
3511.9	-0.0000002
3510.0	0.0000172
3508.1	0.0000257
3506.1	0.0000348
3504.2	0.0000567
3502.3	0.0000663
3500.3	0.0000496
3498.4	0.0000224
3496.5	0.0000019
3494.6	-0.0000096
3492.6	-0.0000208
3490.7	-0.0000275
3488.8	-0.0000174
3486.8	-0.0000013
3484.9	0.0000022
3483.0	-0.0000037
3481.1	-0.0000096
3479.1	-0.0000064
3477.2	0.0000113
3475.3	0.0000312
3473.3	0.0000334
3471.4	0.0000303
3469.5	0.0000534
3467.6	0.0000864
3465.6	0.0000846
3463.7	0.0000586
3461.8	0.0000323
3459.8	0.0000023
3457.9	-0.0000199
3456.0	-0.0000255
3454.1	-0.0000275
3452.1	-0.0000312
3450.2	-0.0000197
3448.3	0.0000266
3446.3	0.0000739
3444.4	0.0000698
3442.5	0.0000263
3440.6	-0.0000033
3438.6	0.0000012
3436.7	0.0000110
3434.8	0.0000198
3432.8	0.0000387
3430.9	0.0000429
3429.0	0.0000162
3427.1	-0.0000141
3425.1	-0.0000283
3423.2	-0.0000247
3421.3	-0.0000035
3419.3	0.0000174
3417.4	0.0000246
3415.5	0.0000197
3413.6	-0.0000040
3411.6	-0.0000430
3409.7	-0.0000597
3407.8	-0.0000267
3405.8	0.0000286
3403.9	0.0000533
3402.0	0.0000270
3400.1	-0.0000152
3398.1	-0.0000145
3396.2	0.0000318
3394.3	0.0000693
3392.3	0.0000710
3390.4	0.0000723
3388.5	0.0000838
3386.6	0.0000748
3384.6	0.0000528
3382.7	0.0000366
3380.8	0.0000201
3378.8	-0.0000007
3376.9	-0.0000161
3375.0	-0.0000105
3373.1	0.0000121
3371.1	0.0000320
3369.2	0.0000498
3367.3	0.0000680
3365.3	0.0000701
3363.4	0.0000568
3361.5	0.0000434
3359.6	0.0000176
3357.6	-0.0000221
3355.7	-0.0000303
3353.8	0.0000038
3351.8	0.0000311
3349.9	0.0000352
3348.0	0.0000398
3346.1	0.0000384
3344.1	0.0000190
3342.2	-0.0000011
3340.3	-0.0000116
3338.3	-0.0000163
3336.4	-0.0000088
3334.5	0.0000037
3332.6	-0.0000043
3330.6	-0.0000253
3328.7	-0.0000287
3326.8	-0.0000169
3324.8	-0.0000104
3322.9	-0.0000142
3321.0	-0.0000250
3319.1	-0.0000374
3317.1	-0.0000454
3315.2	-0.0000429
3313.3	-0.0000257
3311.3	-0.0000022
3309.4	0.0000091
3307.5	-0.0000015
3305.6	-0.0000177
3303.6	-0.0000255
3301.7	-0.0000292
3299.8	-0.0000295
3297.8	-0.0000182
3295.9	0.0000057
3294.0	0.0000330
3292.1	0.0000434
3290.1	0.0000215
3288.2	-0.0000128
3286.3	-0.0000273
3284.3	-0.0000178
3282.4	-0.0000019
3280.5	0.0000024
3278.6	-0.0000004
3276.6	0.0000046
3274.7	0.0000094
3272.8	-0.0000034
3270.8	-0.0000311
3268.9	-0.0000496
3267.0	-0.0000428
3265.1	-0.0000295
3263.1	-0.0000262
3261.2	-0.0000221
3259.3	-0.0000083
3257.3	0.0000040
3255.4	-0.0000010
3253.5	-0.0000171
3251.6	-0.0000308
3249.6	-0.0000338
3247.7	-0.0000188
3245.8	0.0000017
3243.8	0.0000086
3241.9	0.0000055
3240.0	-0.0000027
3238.1	-0.0000092
3236.1	-0.0000009
3234.2	0.0000121
3232.3	0.0000102
3230.3	0.0000029
3228.4	0.0000099
3226.5	0.0000300
3224.6	0.0000453
3222.6	0.0000444
3220.7	0.0000430
3218.8	0.0000546
3216.8	0.0000604
3214.9	0.0000481
3213.0	0.0000354
3211.1	0.0000335
3209.1	0.0000304
3207.2	0.0000297
3205.3	0.0000447
3203.3	0.0000523
3201.4	0.0000377
3199.5	0.0000273
3197.6	0.0000383
3195.6	0.0000651
3193.7	0.0000886
3191.8	0.0000863
3189.8	0.0000678
3187.9	0.0000503
3186.0	0.0000352
3184.1	0.0000336
3182.1	0.0000453
3180.2	0.0000443
3178.3	0.0000240
3176.3	0.0000066
3174.4	0.0000121
3172.5	0.0000399
3170.6	0.0000665
3168.6	0.0000672
3166.7	0.0000540
3164.8	0.0000554
3162.8	0.0000677
3160.9	0.0000680
3159.0	0.0000587
3157.1	0.0000612
3155.1	0.0000719
3153.2	0.0000698
3151.3	0.0000593
3149.3	0.0000574
3147.4	0.0000560
3145.5	0.0000393
3143.6	0.0000189
3141.6	0.0000124
3139.7	0.0000212
3137.8	0.0000348
3135.8	0.0000349
3133.9	0.0000220
3132.0	0.0000150
3130.1	0.0000204
3128.1	0.0000246
3126.2	0.0000175
3124.3	0.0000135
3122.3	0.0000180
3120.4	0.0000145
3118.5	0.0000081
3116.6	0.0000129
3114.6	0.0000233
3112.7	0.0000318
3110.8	0.0000376
3108.8	0.0000379
3106.9	0.0000345
3105.0	0.0000289
3103.1	0.0000164
3101.1	0.0000014
3099.2	-0.0000053
3097.3	-0.0000025
3095.3	0.0000038
3093.4	0.0000119
3091.5	0.0000114
3089.6	-0.0000015
3087.6	-0.0000017
3085.7	0.0000137
3083.8	0.0000237
3081.8	0.0000268
3079.9	0.0000303
3078.0	0.0000363
3076.1	0.0000419
3074.1	0.0000442
3072.2	0.0000402
3070.3	0.0000255
3068.3	0.0000054
3066.4	-0.0000118
3064.5	-0.0000215
3062.6	-0.0000182
3060.6	-0.0000080
3058.7	-0.0000018
3056.8	-0.0000020
3054.8	-0.0000088
3052.9	-0.0000171
3051.0	-0.0000166
3049.1	-0.0000056
3047.1	0.0000024
3045.2	0.0000012
3043.3	0.0000043
3041.3	0.0000175
3039.4	0.0000264
3037.5	0.0000221
3035.6	0.0000143
3033.6	0.0000084
3031.7	-0.0000011
3029.8	-0.0000089
3027.8	-0.0000062
3025.9	0.0000018
3024.0	0.0000153
3022.1	0.0000381
3020.1	0.0000624
3018.2	0.0000765
3016.3	0.0000761
3014.3	0.0000644
3012.4	0.0000503
3010.5	0.0000390
3008.6	0.0000273
3006.6	0.0000126
3004.7	-0.0000022
3002.8	-0.0000129
3000.8	-0.0000179
2998.9	-0.0000150
2997.0	-0.0000116
2995.1	-0.0000100
2993.1	-0.0000042
2991.2	0.0000115
2989.3	0.0000197
2987.3	0.0000128
2985.4	0.0000066
2983.5	0.0000049
2981.6	-0.0000020
2979.6	-0.0000137
2977.7	-0.0000223
2975.8	-0.0000238
2973.8	-0.0000130
2971.9	0.0000141
2970.0	0.0000450
2968.1	0.0000610
2966.1	0.0000613
2964.2	0.0000524
2962.3	0.0000324
2960.3	0.0000074
2958.4	-0.0000133
2956.5	-0.0000256
2954.6	-0.0000226
2952.6	-0.0000065
2950.7	0.0000128
2948.8	0.0000252
2946.8	0.0000249
2944.9	0.0000168
2943.0	0.0000133
2941.1	0.0000166
2939.1	0.0000177
2937.2	0.0000126
2935.3	0.0000060
2933.3	0.0000053
2931.4	0.0000085
2929.5	0.0000168
2927.6	0.0000339
2925.6	0.0000419
2923.7	0.0000293
2921.8	0.0000136
2919.8	0.0000018
2917.9	-0.0000127
2916.0	-0.0000187
2914.1	-0.0000099
2912.1	-0.0000066
2910.2	-0.0000109
2908.3	-0.0000028
2906.3	0.0000131
2904.4	0.0000165
2902.5	0.0000062
2900.6	-0.0000040
2898.6	-0.0000083
2896.7	-0.0000080
2894.8	-0.0000061
2892.8	-0.0000085
2890.9	-0.0000143
2889.0	-0.0000126
2887.1	-0.0000009
2885.1	-0.0000018
2883.2	-0.0000200
2881.3	-0.0000234
2879.3	-0.0000105
2877.4	-0.0000099
2875.5	-0.0000260
2873.6	-0.0000411
2871.6	-0.0000411
2869.7	-0.0000274
2867.8	-0.0000107
2865.8	-0.0000001
2863.9	0.0000010
2862.0	-0.0000040
2860.1	-0.0000096
2858.1	-0.0000127
2856.2	-0.0000096
2854.3	-0.0000070
2852.3	-0.0000205
2850.4	-0.0000426
2848.5	-0.0000546
2846.6	-0.0000532
2844.6	-0.0000393
2842.7	-0.0000226
2840.8	-0.0000194
2838.8	-0.0000301
2836.9	-0.0000366
2835.0	-0.0000290
2833.1	-0.0000214
2831.1	-0.0000219
2829.2	-0.0000160
2827.3	-0.0000048
2825.3	-0.0000003
2823.4	0.0000095
2821.5	0.0000203
2819.6	0.0000083
2817.6	-0.0000108
2815.7	-0.0000131
2813.8	-0.0000016
2811.8	0.0000145
2809.9	0.0000221
2808.0	0.0000096
2806.1	-0.0000125
2804.1	-0.0000206
2802.2	-0.0000079
2800.3	0.0000102
2798.3	0.0000099
2796.4	-0.0000034
2794.5	0.0000012
2792.6	0.0000181
2790.6	0.0000195
2788.7	0.0000025
2786.8	-0.0000147
2784.8	-0.0000135
2782.9	0.0000001
2781.0	0.0000026
2779.1	-0.0000077
2777.1	-0.0000099
2775.2	-0.0000016
2773.3	-0.0000058
2771.3	-0.0000295
2769.4	-0.0000470
2767.5	-0.0000318
2765.6	0.0000030
2763.6	0.0000189
2761.7	0.0000146
2759.8	0.0000135
2757.8	0.0000153
2755.9	0.0000130
2754.0	0.0000081
2752.1	0.0000019
2750.1	-0.0000032
2748.2	-0.0000092
2746.3	-0.0000144
2744.3	-0.0000128
2742.4	-0.0000112
2740.5	-0.0000105
2738.6	0.0000004
2736.6	0.0000150
2734.7	0.0000230
2732.8	0.0000280
2730.8	0.0000328
2728.9	0.0000374
2727.0	0.0000329
2725.1	0.0000188
2723.1	0.0000163
2721.2	0.0000228
2719.3	0.0000187
2717.3	0.0000049
2715.4	-0.0000114
2713.5	-0.0000203
2711.6	-0.0000148
2709.6	-0.0000025
2707.7	0.0000041
2705.8	-0.0000030
2703.8	-0.0000122
2701.9	-0.0000044
2700.0	0.0000157
2698.1	0.0000253
2696.1	0.0000152
2694.2	-0.0000044
2692.3	-0.0000223
2690.3	-0.0000292
2688.4	-0.0000209
2686.5	-0.0000112
2684.6	-0.0000141
2682.6	-0.0000217
2680.7	-0.0000257
2678.8	-0.0000303
2676.8	-0.0000271
2674.9	-0.0000091
2673.0	0.0000057
2671.1	0.0000053
2669.1	0.0000012
2667.2	0.0000072
2665.3	0.0000206
2663.3	0.0000269
2661.4	0.0000269
2659.5	0.0000341
2657.6	0.0000435
2655.6	0.0000355
2653.7	0.0000078
2651.8	-0.0000185
2649.8	-0.0000228
2647.9	-0.0000104
2646.0	-0.0000020
2644.1	0.0000023
2642.1	0.0000070
2640.2	0.0000062
2638.3	0.0000066
2636.3	0.0000148
2634.4	0.0000284
2632.5	0.0000391
2630.6	0.0000333
2628.6	0.0000189
2626.7	0.0000155
2624.8	0.0000171
2622.8	0.0000047
2620.9	-0.0000110
2619.0	-0.0000019
2617.1	0.0000267
2615.1	0.0000399
2613.2	0.0000295
2611.3	0.0000240
2609.3	0.0000298
2607.4	0.0000267
2605.5	0.0000201
2603.6	0.0000243
2601.6	0.0000313
2599.7	0.0000316
2597.8	0.0000288
2595.8	0.0000314
2593.9	0.0000384
2592.0	0.0000404
2590.1	0.0000330
2588.1	0.0000194
2586.2	0.0000064
2584.3	0.0000037
2582.3	0.0000131
2580.4	0.0000182
2578.5	0.0000118
2576.6	0.0000110
2574.6	0.0000238
2572.7	0.0000320
2570.8	0.0000309
2568.8	0.0000308
2566.9	0.0000199
2565.0	-0.0000032
2563.1	-0.0000152
2561.1	-0.0000185
2559.2	-0.0000260
2557.3	-0.0000230
2555.3	-0.0000057
2553.4	0.0000058
2551.5	0.0000042
2549.6	-0.0000003
2547.6	0.0000039
2545.7	0.0000140
2543.8	0.0000135
2541.8	0.0000051
2539.9	0.0000068
2538.0	0.0000249
2536.1	0.0000432
2534.1	0.0000437
2532.2	0.0000320
2530.3	0.0000216
2528.3	0.0000155
2526.4	0.0000157
2524.5	0.0000264
2522.6	0.0000454
2520.6	0.0000579
2518.7	0.0000548
2516.8	0.0000431
2514.8	0.0000258
2512.9	0.0000007
2511.0	-0.0000172
2509.1	-0.0000152
2507.1	-0.0000065
2505.2	-0.0000010
2503.3	0.0000079
2501.3	0.0000166
2499.4	0.0000192
2497.5	0.0000215
2495.6	0.0000249
2493.6	0.0000190
2491.7	0.0000059
2489.8	0.0000052
2487.8	0.0000124
2485.9	0.0000089
2484.0	0.0000035
2482.1	0.0000053
2480.1	0.0000138
2478.2	0.0000314
2476.3	0.0000394
2474.3	0.0000203
2472.4	-0.0000063
2470.5	-0.0000146
2468.6	-0.0000020
2466.6	0.0000160
2464.7	0.0000247
2462.8	0.0000234
2460.8	0.0000200
2458.9	0.0000203
2457.0	0.0000256
2455.1	0.0000360
2453.1	0.0000438
2451.2	0.0000399
2449.3	0.0000341
2447.3	0.0000350
2445.4	0.0000338
2443.5	0.0000263
2441.6	0.0000132
2439.6	-0.0000041
2437.7	-0.0000080
2435.8	0.0000101
2433.8	0.0000280
2431.9	0.0000307
2430.0	0.0000167
2428.1	-0.0000094
2426.1	-0.0000227
2424.2	-0.0000097
2422.3	0.0000111
2420.3	0.0000123
2418.4	-0.0000085
2416.5	-0.0000222
2414.6	-0.0000171
2412.6	-0.0000047
2410.7	0.0000118
2408.8	0.0000271
2406.8	0.0000358
2404.9	0.0000375
2403.0	0.0000341
2401.1	0.0000285
2399.1	0.0000141
2397.2	-0.0000059
2395.3	-0.0000111
2393.3	0.0000005
2391.4	0.0000123
2389.5	0.0000242
2387.6	0.0000452
2385.6	0.0000592
2383.7	0.0000466
2381.8	0.0000191
2379.8	-0.0000055
2377.9	-0.0000243
2376.0	-0.0000298
2374.1	-0.0000142
2372.1	0.0000107
2370.2	0.0000253
2368.3	0.0000216
2366.3	0.0000033
2364.4	-0.0000210
2362.5	-0.0000334
2360.6	-0.0000204
2358.6	0.0000044
2356.7	0.0000176
2354.8	0.0000129
2352.8	0.0000002
2350.9	-0.0000097
2349.0	-0.0000070
2347.1	0.0000073
2345.1	0.0000130
2343.2	0.0000078
2341.3	0.0000116
2339.3	0.0000212
2337.4	0.0000202
2335.5	0.0000117
2333.6	0.0000089
2331.6	0.0000087
2329.7	0.0000058
2327.8	0.0000038
2325.8	-0.0000031
2323.9	-0.0000109
2322.0	-0.0000037
2320.1	0.0000107
2318.1	0.0000187
2316.2	0.0000237
2314.3	0.0000217
2312.3	0.0000084
2310.4	-0.0000070
2308.5	-0.0000145
2306.6	-0.0000126
2304.6	-0.0000081
2302.7	-0.0000034
2300.8	0.0000062
2298.8	0.0000136
2296.9	0.0000142
2295.0	0.0000171
2293.1	0.0000248
2291.1	0.0000291
2289.2	0.0000198
2287.3	0.0000009
2285.3	-0.0000057
2283.4	0.0000087
2281.5	0.0000219
2279.6	0.0000157
2277.6	0.0000007
2275.7	-0.0000093
2273.8	-0.0000100
2271.8	-0.0000080
2269.9	-0.0000151
2268.0	-0.0000242
2266.1	-0.0000247
2264.1	-0.0000268
2262.2	-0.0000351
2260.3	-0.0000322
2258.3	-0.0000148
2256.4	-0.0000015
2254.5	0.0000068
2252.6	0.0000091
2250.6	-0.0000012
2248.7	-0.0000043
2246.8	0.0000128
2244.8	0.0000279
2242.9	0.0000253
2241.0	0.0000151
2239.1	0.0000085
2237.1	0.0000051
2235.2	0.0000004
2233.3	-0.0000034
2231.3	-0.0000027
2229.4	-0.0000069
2227.5	-0.0000192
2225.6	-0.0000256
2223.6	-0.0000198
2221.7	-0.0000062
2219.8	0.0000072
2217.8	0.0000084
2215.9	-0.0000002
2214.0	-0.0000038
2212.1	0.0000025
2210.1	0.0000100
2208.2	0.0000027
2206.3	-0.0000173
2204.3	-0.0000249
2202.4	-0.0000110
2200.5	0.0000101
2198.6	0.0000241
2196.6	0.0000260
2194.7	0.0000197
2192.8	0.0000080
2190.8	-0.0000024
2188.9	-0.0000033
2187.0	-0.0000008
2185.1	-0.0000060
2183.1	-0.0000106
2181.2	-0.0000028
2179.3	0.0000075
2177.3	0.0000020
2175.4	-0.0000186
2173.5	-0.0000298
2171.6	-0.0000156
2169.6	0.0000092
2167.7	0.0000192
2165.8	0.0000139
2163.8	0.0000063
2161.9	-0.0000047
2160.0	-0.0000138
2158.1	-0.0000157
2156.1	-0.0000135
2154.2	-0.0000016
2152.3	0.0000097
2150.3	0.0000024
2148.4	-0.0000084
2146.5	-0.0000030
2144.6	0.0000046
2142.6	0.0000002
2140.7	-0.0000091
2138.8	-0.0000197
2136.8	-0.0000238
2134.9	-0.0000128
2133.0	0.0000057
2131.1	0.0000182
2129.1	0.0000130
2127.2	-0.0000043
2125.3	-0.0000115
2123.3	-0.0000063
2121.4	-0.0000003
2119.5	0.0000132
2117.6	0.0000298
2115.6	0.0000269
2113.7	0.0000053
2111.8	-0.0000117
2109.8	-0.0000074
2107.9	0.0000157
2106.0	0.0000320
2104.1	0.0000221
2102.1	0.0000055
2100.2	0.0000078
2098.3	0.0000251
2096.3	0.0000250
2094.4	0.0000222
2092.5	0.0000278
2090.6	0.0000256
2088.6	-0.0000086
2086.7	-0.0000375
2084.8	0.0000430
2082.8	0.0002871
2080.9	0.0006026
2079.0	0.0008216
2077.1	0.0008609
2075.1	0.0007710
2073.2	0.0006444
2071.3	0.0005302
2069.3	0.0004428
2067.4	0.0003839
2065.5	0.0003386
2063.6	0.0002893
2061.6	0.0002392
2059.7	0.0001982
2057.8	0.0001675
2055.8	0.0001474
2053.9	0.0001374
2052.0	0.0001243
2050.1	0.0000950
2048.1	0.0000616
2046.2	0.0000433
2044.3	0.0000389
2042.3	0.0000359
2040.4	0.0000256
2038.5	0.0000114
2036.6	0.0000042
2034.6	0.0000015
2032.7	-0.0000006
2030.8	0.0000069
2028.8	0.0000221
2026.9	0.0000320
2025.0	0.0000387
2023.1	0.0000419
2021.1	0.0000285
2019.2	0.0000087
2017.3	0.0000053
2015.3	0.0000115
2013.4	0.0000139
2011.5	0.0000119
2009.6	0.0000126
2007.6	0.0000207
2005.7	0.0000288
2003.8	0.0000291
2001.8	0.0000207
1999.9	0.0000106
1998.0	0.0000062
1996.1	0.0000054
1994.1	0.0000069
1992.2	0.0000077
1990.3	-0.0000035
1988.3	-0.0000128
1986.4	-0.0000143
1984.5	-0.0000130
1982.6	-0.0000060
1980.6	0.0000017
1978.7	0.0000052
1976.8	0.0000084
1974.8	0.0000062
1972.9	-0.0000079
1971.0	-0.0000241
1969.1	-0.0000319
1967.1	-0.0000375
1965.2	-0.0000393
1963.3	-0.0000100
1961.4	0.0000409
1959.4	0.0000665
1957.5	0.0000500
1955.6	0.0000202
1953.6	0.0000013
1951.7	-0.0000106
1949.8	-0.0000187
1947.9	-0.0000164
1945.9	-0.0000070
1944.0	0.0000012
1942.1	-0.0000019
1940.1	-0.0000170
1938.2	-0.0000254
1936.3	-0.0000201
1934.4	-0.0000009
1932.4	0.0000170
1930.5	0.0000264
1928.6	0.0000249
1926.6	0.0000045
1924.7	-0.0000178
1922.8	-0.0000328
1920.9	-0.0000520
1918.9	-0.0000466
1917.0	-0.0000330
1915.1	-0.0000248
1913.1	-0.0000086
1911.2	0.0000118
1909.3	0.0000283
1907.4	0.0000255
1905.4	0.0000177
1903.5	0.0000166
1901.6	0.0000105
1899.6	0.0000025
1897.7	0.0000095
1895.8	0.0000227
1893.9	0.0000169
1891.9	0.0000048
1890.0	0.0000040
1888.1	-0.0000092
1886.1	-0.0000239
1884.2	-0.0000256
1882.3	-0.0000197
1880.4	-0.0000129
1878.4	-0.0000177
1876.5	-0.0000255
1874.6	-0.0000212
1872.6	-0.0000103
1870.7	0.0000111
1868.8	0.0000242
1866.9	0.0000074
1864.9	-0.0000038
1863.0	-0.0000024
1861.1	-0.0000031
1859.1	-0.0000095
1857.2	-0.0000116
1855.3	-0.0000060
1853.4	-0.0000008
1851.4	0.0000008
1849.5	0.0000018
1847.6	-0.0000014
1845.6	0.0000202
1843.7	0.0000288
1841.8	-0.0000057
1839.9	0.0000071
1837.9	0.0000360
1836.0	0.0000348
1834.1	0.0000093
1832.1	-0.0000079
1830.2	-0.0000074
1828.3	-0.0000383
1826.4	-0.0000534
1824.4	-0.0000410
1822.5	-0.0000328
1820.6	-0.0000199
1818.6	-0.0000147
1816.7	-0.0000222
1814.8	-0.0000332
1812.9	-0.0000313
1810.9	-0.0000305
1809.0	-0.0000449
1807.1	-0.0000560
1805.1	-0.0000591
1803.2	-0.0000525
1801.3	-0.0000432
1799.4	-0.0000481
1797.4	-0.0000545
1795.5	-0.0000474
1793.6	-0.0000131
1791.6	-0.0000043
1789.7	-0.0000282
1787.8	-0.0000165
1785.9	0.0000155
1783.9	0.0000117
1782.0	-0.0000091
1780.1	-0.0000135
1778.1	-0.0000272
1776.2	-0.0000523
1774.3	-0.0000469
1772.4	-0.0000317
1770.4	-0.0000576
1768.5	-0.0000317
1766.6	-0.0000178
1764.6	-0.0000205
1762.7	0.0000092
1760.8	-0.0000054
1758.9	-0.0000270
1756.9	-0.0000055
1755.0	-0.0000208
1753.1	-0.0000146
1751.1	0.0000133
1749.2	-0.0000045
1747.3	-0.0000137
1745.4	-0.0000127
1743.4	-0.0000183
1741.5	-0.0000006
1739.6	0.0000251
1737.6	-0.0000075
1735.7	0.0000408
1733.8	0.0001186
1731.9	0.0000817
1729.9	0.0000983
1728.0	0.0001410
1726.1	0.0001593
1724.1	0.0001738
1722.2	0.0001560
1720.3	0.0001484
1718.4	0.0002161
1716.4	0.0002254
1714.5	0.0001917
1712.6	0.0001948
1710.6	0.0002166
1708.7	0.0002382
1706.8	0.0002525
1704.9	0.0002095
1702.9	0.0001524
1701.0	0.0001939
1699.1	0.0001266
1697.1	0.0001285
1695.2	0.0002093
1693.3	0.0001752
1691.4	0.0002305
1689.4	0.0002864
1687.5	0.0003018
1685.6	0.0003917
1683.6	0.0003513
1681.7	0.0001839
1679.8	0.0001023
1677.9	0.0000523
1675.9	0.0000610
1674.0	0.0000402
1672.1	0.0000134
1670.1	0.0000501
1668.2	0.0000501
1666.3	0.0000189
1664.4	0.0000363
1662.4	0.0000491
1660.5	0.0000335
1658.6	0.0000190
1656.6	-0.0000214
1654.7	0.0000531
1652.8	0.0001323
1650.9	-0.0000070
1648.9	-0.0000302
1647.0	0.0000631
1645.1	0.0000449
1643.1	-0.0000072
1641.2	-0.0000193
1639.3	-0.0000586
1637.4	-0.0000593
1635.4	-0.0000506
1633.5	-0.0001363
1631.6	-0.0001610
1629.6	-0.0001090
1627.7	-0.0000696
1625.8	-0.0000503
1623.9	-0.0000098
1621.9	-0.0000178
1620.0	-0.0000506
1618.1	0.0000099
1616.1	0.0000419
1614.2	-0.0000030
1612.3	0.0000294
1610.4	0.0000740
1608.4	0.0000851
1606.5	0.0000786
1604.6	0.0000677
1602.6	0.0000626
1600.7	0.0000589
1598.8	0.0000480
1596.9	0.0000404
1594.9	0.0000457
1593.0	0.0000485
1591.1	0.0000394
1589.1	0.0000261
1587.2	0.0000145
1585.3	0.0000019
1583.4	-0.0000121
1581.4	-0.0000329
1579.5	-0.0000583
1577.6	0.0000032
1575.6	0.0000421
1573.7	-0.0000312
1571.8	-0.0000199
1569.9	0.0000268
1567.9	0.0000001
1566.0	-0.0000100
1564.1	-0.0000257
1562.1	-0.0000453
1560.2	0.0000386
1558.3	0.0000281
1556.4	-0.0000653
1554.4	-0.0000239
1552.5	0.0000146
1550.6	0.0000293
1548.6	0.0000197
1546.7	-0.0000013
1544.8	-0.0000114
1542.9	-0.0000144
1540.9	0.0000464
1539.0	0.0000602
1537.1	-0.0000280
1535.1	-0.0000149
1533.2	0.0000154
1531.3	-0.0000373
1529.4	-0.0000589
1527.4	-0.0000603
1525.5	-0.0000999
1523.6	-0.0001248
1521.6	-0.0000818
1519.7	-0.0000928
1517.8	-0.0000700
1515.9	-0.0000020
1513.9	0.0000767
1512.0	0.0001689
1510.1	0.0002008
1508.1	0.0002617
1506.2	0.0002984
1504.3	0.0001991
1502.4	0.0001470
1500.4	0.0001308
1498.5	0.0000842
1496.6	0.0000454
1494.6	-0.0000132
1492.7	-0.0000319
1490.8	0.0000048
1488.9	0.0000037
1486.9	-0.0000016
1485.0	0.0000142
1483.1	0.0000497
1481.1	0.0000823
1479.2	0.0000904
1477.3	0.0000929
1475.4	0.0001005
1473.4	0.0001387
1471.5	0.0001345
1469.6	0.0000961
1467.6	0.0001139
1465.7	0.0001791
1463.8	0.0002154
1461.9	0.0002049
1459.9	0.0002002
1458.0	0.0002468
1456.1	0.0002109
1454.1	0.0001051
1452.2	0.0001009
1450.3	0.0001446
1448.4	0.0001999
1446.4	0.0002327
1444.5	0.0002515
1442.6	0.0002619
1440.6	0.0002429
1438.7	0.0002681
1436.8	0.0003349
1434.9	0.0003150
1432.9	0.0003088
1431.0	0.0003651
1429.1	0.0004234
1427.1	0.0004882
1425.2	0.0005740
1423.3	0.0006244
1421.4	0.0006890
1419.4	0.0008290
1417.5	0.0009703
1415.6	0.0011724
1413.6	0.0014033
1411.7	0.0015399
1409.8	0.0015041
1407.9	0.0012895
1405.9	0.0009763
1404.0	0.0006554
1402.1	0.0004086
1400.1	0.0002757
1398.2	0.0001806
1396.3	0.0001103
1394.4	0.0000845
1392.4	0.0000579
1390.5	0.0000584
1388.6	0.0001076
1386.6	0.0001483
1384.7	0.0001455
1382.8	0.0001322
1380.9	0.0001210
1378.9	0.0001162
1377.0	0.0001050
1375.1	0.0001038
1373.1	0.0001013
1371.2	0.0000835
1369.3	0.0000681
1367.4	0.0000484
1365.4	0.0000371
1363.5	0.0000456
1361.6	0.0000483
1359.6	0.0000486
1357.7	0.0000561
1355.8	0.0000552
1353.9	0.0000419
1351.9	0.0000297
1350.0	0.0000241
1348.1	0.0000267
1346.1	0.0000311
1344.2	0.0000158
1342.3	-0.0000076
1340.4	-0.0000047
1338.4	0.0000108
1336.5	0.0000191
1334.6	0.0000255
1332.6	0.0000367
1330.7	0.0000429
1328.8	0.0000353
1326.9	0.0000280
1324.9	0.0000309
1323.0	0.0000419
1321.1	0.0000682
1319.1	0.0001051
1317.2	0.0001295
1315.3	0.0001444
1313.4	0.0001700
1311.4	0.0001977
1309.5	0.0002088
1307.6	0.0002036
1305.6	0.0001874
1303.7	0.0001551
1301.8	0.0001083
1299.9	0.0000702
1297.9	0.0000575
1296.0	0.0000613
1294.1	0.0000668
1292.1	0.0000744
1290.2	0.0000820
1288.3	0.0000845
1286.4	0.0000911
1284.4	0.0001012
1282.5	0.0001010
1280.6	0.0000923
1278.6	0.0000838
1276.7	0.0000773
1274.8	0.0000703
1272.9	0.0000627
1270.9	0.0000636
1269.0	0.0000800
1267.1	0.0001028
1265.1	0.0001186
1263.2	0.0001275
1261.3	0.0001341
1259.4	0.0001294
1257.4	0.0001077
1255.5	0.0000835
1253.6	0.0000592
1251.6	0.0000283
1249.7	0.0000028
1247.8	-0.0000106
1245.9	-0.0000125
1243.9	-0.0000003
1242.0	0.0000258
1240.1	0.0000580
1238.1	0.0000820
1236.2	0.0000862
1234.3	0.0000714
1232.4	0.0000540
1230.4	0.0000440
1228.5	0.0000325
1226.6	0.0000233
1224.6	0.0000247
1222.7	0.0000348
1220.8	0.0000438
1218.9	0.0000381
1216.9	0.0000254
1215.0	0.0000334
1213.1	0.0000512
1211.1	0.0000405
1209.2	0.0000102
1207.3	0.0000014
1205.4	0.0000191
1203.4	0.0000325
1201.5	0.0000212
1199.6	0.0000046
1197.6	-0.0000088
1195.7	0.0000083
1193.8	0.0000235
1191.9	0.0000217
1189.9	0.0000339
1188.0	0.0000490
1186.1	0.0000278
1184.1	-0.0000066
1182.2	-0.0000128
1180.3	0.0000083
1178.4	0.0000403
1176.4	0.0000633
1174.5	0.0000653
1172.6	0.0000581
1170.6	0.0000576
1168.7	0.0000607
1166.8	0.0000422
1164.9	0.0000058
1162.9	-0.0000098
1161.0	-0.0000064
1159.1	-0.0000092
1157.1	-0.0000199
1155.2	-0.0000283
1153.3	-0.0000265
1151.4	-0.0000156
1149.4	-0.0000036
1147.5	0.0000001
1145.6	-0.0000028
1143.6	-0.0000044
1141.7	-0.0000021
1139.8	0.0000050
1137.9	0.0000050
1135.9	-0.0000022
1134.0	0.0000132
1132.1	0.0000449
1130.1	0.0000390
1128.2	0.0000038
1126.3	-0.0000016
1124.4	0.0000084
1122.4	-0.0000022
1120.5	-0.0000075
1118.6	0.0000077
1116.6	0.0000160
1114.7	0.0000190
1112.8	0.0000373
1110.9	0.0000537
1108.9	0.0000448
1107.0	0.0000208
1105.1	0.0000159
1103.1	0.0000366
1101.2	0.0000427
1099.3	0.0000205
1097.4	0.0000002
1095.4	0.0000030
1093.5	0.0000112
1091.6	-0.0000034
1089.6	-0.0000319
1087.7	-0.0000413
1085.8	-0.0000021
1083.9	0.0000629
1081.9	0.0000817
1080.0	0.0000519
1078.1	0.0000297
1076.1	0.0000308
1074.2	0.0000326
1072.3	0.0000133
1070.4	-0.0000175
1068.4	-0.0000294
1066.5	-0.0000164
1064.6	0.0000018
1062.6	-0.0000002
1060.7	-0.0000219
1058.8	-0.0000243
1056.9	0.0000255
1054.9	0.0001033
1053.0	0.0001488
1051.1	0.0001488
1049.1	0.0001435
1047.2	0.0001396
1045.3	0.0001172
1043.4	0.0000874
1041.4	0.0000615
1039.5	0.0000238
1037.6	-0.0000266
1035.6	-0.0000622
1033.7	-0.0000687
1031.8	-0.0000671
1029.9	-0.0000661
1027.9	-0.0000420
1026.0	0.0000062
1024.1	0.0000316
1022.1	0.0000102
1020.2	-0.0000173
1018.3	-0.0000181
1016.4	-0.0000108
1014.4	-0.0000232
1012.5	-0.0000557
1010.6	-0.0000863
1008.6	-0.0001061
1006.7	-0.0001280
1004.8	-0.0001535
1002.9	-0.0001575
1000.9	-0.0001266
999.0	-0.0000848
997.1	-0.0000713
995.1	-0.0000953
993.2	-0.0001301
991.3	-0.0001491
989.4	-0.0001321
987.4	-0.0000854
985.5	-0.0000517
983.6	-0.0000344
981.6	-0.0000145
979.7	-0.0000183
977.8	-0.0000493
975.9	-0.0000584
973.9	-0.0000343
972.0	-0.0000122
970.1	-0.0000068
968.1	0.0000006
966.2	0.0000286
964.3	0.0000556
962.4	0.0000450
960.4	0.0000125
958.5	-0.0000075
956.6	-0.0000160
954.6	-0.0000134
952.7	0.0000033
950.8	0.0000077
948.9	-0.0000066
946.9	-0.0000053
945.0	0.0000218
943.1	0.0000452
941.1	0.0000426
939.2	0.0000227
937.3	-0.0000097
935.4	-0.0000469
933.4	-0.0000434
931.5	0.0000027
929.6	0.0000375
927.6	0.0000423
925.7	0.0000222
923.8	-0.0000014
921.9	-0.0000036
919.9	-0.0000069
918.0	-0.0000340
916.1	-0.0000598
914.1	-0.0000650
912.2	-0.0000524
910.3	-0.0000251
908.4	-0.0000016
906.4	0.0000108
904.5	0.0000224
902.6	0.0000089
900.6	-0.0000070
898.7	0.0000355
896.8	0.0000725
894.9	0.0000421
892.9	0.0000058
891.0	-0.0000089
889.1	-0.0000050
887.1	0.0000401
885.2	0.0000926
883.3	0.0000825
881.4	0.0000535
879.4	0.0000670
877.5	-0.0000614
875.6	-0.0003301
873.6	-0.0003240
871.7	-0.0000630
869.8	0.0000247
867.9	-0.0000399
865.9	-0.0000351
864.0	-0.0000123
862.1	-0.0000267
860.1	-0.0000347
858.2	-0.0000233
856.3	0.0000436
854.4	0.0001342
852.4	0.0001336
850.5	0.0000475
848.6	-0.0000155
