3997.9	0.0000237
3996.0	0.0000169
3994.1	0.0000202
3992.1	0.0000337
3990.2	0.0000268
3988.3	-0.0000001
3986.3	-0.0000141
3984.4	-0.0000012
3982.5	0.0000194
3980.6	0.0000163
3978.6	-0.0000100
3976.7	-0.0000150
3974.8	0.0000225
3972.8	0.0000619
3970.9	0.0000644
3969.0	0.0000459
3967.1	0.0000315
3965.1	0.0000276
3963.2	0.0000519
3961.3	0.0000988
3959.3	0.0001211
3957.4	0.0001119
3955.5	0.0001015
3953.6	0.0000925
3951.6	0.0000803
3949.7	0.0000819
3947.8	0.0001030
3945.8	0.0001130
3943.9	0.0000922
3942.0	0.0000739
3940.1	0.0000837
3938.1	0.0001042
3936.2	0.0001169
3934.3	0.0001151
3932.3	0.0001045
3930.4	0.0001007
3928.5	0.0001081
3926.6	0.0001272
3924.6	0.0001634
3922.7	0.0001925
3920.8	0.0001756
3918.8	0.0001252
3916.9	0.0000883
3915.0	0.0000900
3913.1	0.0001127
3911.1	0.0001188
3909.2	0.0001042
3907.3	0.0000828
3905.3	0.0000490
3903.4	0.0000191
3901.5	0.0000310
3899.6	0.0000756
3897.6	0.0001120
3895.7	0.0001237
3893.8	0.0001006
3891.8	0.0000647
3889.9	0.0000693
3888.0	0.0000875
3886.1	0.0000782
3884.1	0.0000829
3882.2	0.0001047
3880.3	0.0001161
3878.3	0.0001258
3876.4	0.0001212
3874.5	0.0000999
3872.6	0.0000639
3870.6	0.0000107
3868.7	-0.0000084
3866.8	0.0000170
3864.8	0.0000372
3862.9	0.0000537
3861.0	0.0000742
3859.1	0.0000759
3857.1	0.0000288
3855.2	-0.0000677
3853.3	-0.0001186
3851.3	-0.0000643
3849.4	0.0000215
3847.5	0.0000811
3845.6	0.0001081
3843.6	0.0001136
3841.7	0.0000929
3839.8	0.0000266
3837.8	-0.0000165
3835.9	0.0000247
3834.0	0.0000737
3832.1	0.0000718
3830.1	0.0000597
3828.2	0.0000674
3826.3	0.0000807
3824.3	0.0000628
3822.4	0.0000143
3820.5	0.0000112
3818.6	0.0000413
3816.6	0.0000295
3814.7	0.0000343
3812.8	0.0000964
3810.8	0.0001272
3808.9	0.0000804
3807.0	0.0000309
3805.1	0.0000246
3803.1	0.0000015
3801.2	-0.0000170
3799.3	0.0000233
3797.3	0.0000661
3795.4	0.0000852
3793.5	0.0000925
3791.6	0.0000867
3789.6	0.0000954
3787.7	0.0001198
3785.8	0.0001288
3783.8	0.0001332
3781.9	0.0001459
3780.0	0.0001404
3778.1	0.0001248
3776.1	0.0001320
3774.2	0.0001451
3772.3	0.0001331
3770.3	0.0001045
3768.4	0.0000861
3766.5	0.0000878
3764.6	0.0001061
3762.6	0.0001117
3760.7	0.0000895
3758.8	0.0000843
3756.8	0.0000935
3754.9	0.0000459
3753.0	-0.0000603
3751.1	-0.0001349
3749.1	-0.0001220
3747.2	-0.0000952
3745.3	-0.0000922
3743.3	-0.0000266
3741.4	0.0000664
3739.5	0.0000642
3737.6	-0.0000073
3735.6	-0.0000572
3733.7	-0.0000534
3731.8	-0.0000103
3729.8	0.0000309
3727.9	0.0000422
3726.0	0.0000363
3724.1	0.0000375
3722.1	0.0000485
3720.2	0.0000561
3718.3	0.0000543
3716.3	0.0000512
3714.4	0.0000327
3712.5	-0.0000089
3710.6	-0.0000309
3708.6	-0.0000051
3706.7	0.0000425
3704.8	0.0000570
3702.8	0.0000171
3700.9	-0.0000146
3699.0	0.0000090
3697.1	0.0000485
3695.1	0.0000579
3693.2	0.0000421
3691.3	0.0000173
3689.3	-0.0000116
3687.4	-0.0000125
3685.5	0.0000257
3683.6	0.0000495
3681.6	0.0000391
3679.7	0.0000183
3677.8	-0.0000209
3675.8	-0.0000505
3673.9	-0.0000365
3672.0	-0.0000447
3670.1	-0.0000758
3668.1	-0.0000427
3666.2	0.0000315
3664.3	0.0000744
3662.3	0.0000745
3660.4	0.0000527
3658.5	0.0000300
3656.6	0.0000197
3654.6	0.0000164
3652.7	-0.0000231
3650.8	-0.0001088
3648.8	-0.0001509
3646.9	-0.0000973
3645.0	-0.0000167
3643.1	0.0000373
3641.1	0.0000640
3639.2	0.0000658
3637.3	0.0000621
3635.3	0.0000583
3633.4	0.0000263
3631.5	-0.0000433
3629.6	-0.0001084
3627.6	-0.0001038
3625.7	-0.0000344
3623.8	0.0000163
3621.8	0.0000003
3619.9	-0.0000346
3618.0	-0.0000314
3616.1	-0.0000003
3614.1	0.0000299
3612.2	0.0000372
3610.3	0.0000073
3608.3	-0.0000286
3606.4	-0.0000314
3604.5	-0.0000191
3602.6	-0.0000103
3600.6	0.0000173
3598.7	0.0000485
3596.8	0.0000417
3594.8	0.0000198
3592.9	0.0000223
3591.0	0.0000289
3589.1	0.0000067
3587.1	-0.0000222
3585.2	-0.0000124
3583.3	0.0000238
3581.3	0.0000298
3579.4	0.0000110
3577.5	0.0000170
3575.6	0.0000361
3573.6	0.0000392
3571.7	0.0000298
3569.8	0.0000037
3567.8	-0.0000260
3565.9	-0.0000317
3564.0	-0.0000253
3562.1	-0.0000301
3560.1	-0.0000353
3558.2	-0.0000285
3556.3	-0.0000136
3554.3	-0.0000023
3552.4	-0.0000097
3550.5	-0.0000322
3548.6	-0.0000524
3546.6	-0.0000505
3544.7	-0.0000241
3542.8	-0.0000052
3540.8	-0.0000094
3538.9	-0.0000246
3537.0	-0.0000383
3535.1	-0.0000313
3533.1	0.0000036
3531.2	0.0000408
3529.3	0.0000561
3527.3	0.0000429
3525.4	0.0000115
3523.5	-0.0000072
3521.6	-0.0000078
3519.6	-0.0000243
3517.7	-0.0000561
3515.8	-0.0000608
3513.8	-0.0000374
3511.9	-0.0000179
3510.0	-0.0000063
3508.1	0.0000102
3506.1	0.0000269
3504.2	0.0000213
3502.3	-0.0000037
3500.3	-0.0000172
3498.4	-0.0000209
3496.5	-0.0000229
3494.6	-0.0000164
3492.6	-0.0000143
3490.7	-0.0000247
3488.8	-0.0000356
3486.8	-0.0000393
3484.9	-0.0000395
3483.0	-0.0000354
3481.1	-0.0000239
3479.1	-0.0000157
3477.2	-0.0000184
3475.3	-0.0000267
3473.3	-0.0000277
3471.4	-0.0000111
3469.5	0.0000141
3467.6	0.0000287
3465.6	0.0000193
3463.7	-0.0000076
3461.8	-0.0000292
3459.8	-0.0000325
3457.9	-0.0000242
3456.0	-0.0000222
3454.1	-0.0000263
3452.1	-0.0000192
3450.2	-0.0000036
3448.3	0.0000165
3446.3	0.0000421
3444.4	0.0000502
3442.5	0.0000287
3440.6	0.0000098
3438.6	0.0000164
3436.7	0.0000235
3434.8	0.0000153
3432.8	-0.0000008
3430.9	-0.0000253
3429.0	-0.0000420
3427.1	-0.0000353
3425.1	-0.0000223
3423.2	-0.0000113
3421.3	0.0000147
3419.3	0.0000447
3417.4	0.0000394
3415.5	0.0000005
3413.6	-0.0000401
3411.6	-0.0000666
3409.7	-0.0000638
3407.8	-0.0000299
3405.8	-0.0000023
3403.9	-0.0000172
3402.0	-0.0000618
3400.1	-0.0000884
3398.1	-0.0000749
3396.2	-0.0000442
3394.3	-0.0000247
3392.3	-0.0000193
3390.4	-0.0000050
3388.5	0.0000284
3386.6	0.0000495
3384.6	0.0000435
3382.7	0.0000282
3380.8	0.0000131
3378.8	0.0000061
3376.9	0.0000059
3375.0	0.0000073
3373.1	0.0000103
3371.1	0.0000045
3369.2	-0.0000046
3367.3	-0.0000046
3365.3	-0.0000029
3363.4	0.0000066
3361.5	0.0000326
3359.6	0.0000448
3357.6	0.0000236
3355.7	-0.0000032
3353.8	-0.0000235
3351.8	-0.0000402
3349.9	-0.0000300
3348.0	0.0000113
3346.1	0.0000407
3344.1	0.0000353
3342.2	0.0000178
3340.3	-0.0000008
3338.3	-0.0000210
3336.4	-0.0000240
3334.5	-0.0000114
3332.6	-0.0000130
3330.6	-0.0000349
3328.7	-0.0000491
3326.8	-0.0000443
3324.8	-0.0000420
3322.9	-0.0000476
3321.0	-0.0000462
3319.1	-0.0000432
3317.1	-0.0000456
3315.2	-0.0000339
3313.3	-0.0000043
3311.3	0.0000159
3309.4	0.0000129
3307.5	-0.0000131
3305.6	-0.0000461
3303.6	-0.0000569
3301.7	-0.0000500
3299.8	-0.0000509
3297.8	-0.0000489
3295.9	-0.0000344
3294.0	-0.0000224
3292.1	-0.0000148
3290.1	-0.0000117
3288.2	-0.0000220
3286.3	-0.0000360
3284.3	-0.0000394
3282.4	-0.0000253
3280.5	0.0000052
3278.6	0.0000338
3276.6	0.0000377
3274.7	0.0000173
3272.8	0.0000028
3270.8	0.0000060
3268.9	0.0000081
3267.0	0.0000034
3265.1	-0.0000052
3263.1	-0.0000113
3261.2	-0.0000034
3259.3	0.0000156
3257.3	0.0000261
3255.4	0.0000094
3253.5	-0.0000253
3251.6	-0.0000518
3249.6	-0.0000544
3247.7	-0.0000430
3245.8	-0.0000355
3243.8	-0.0000238
3241.9	-0.0000092
3240.0	-0.0000162
3238.1	-0.0000453
3236.1	-0.0000643
3234.2	-0.0000563
3232.3	-0.0000429
3230.3	-0.0000366
3228.4	-0.0000272
3226.5	-0.0000176
3224.6	-0.0000209
3222.6	-0.0000336
3220.7	-0.0000363
3218.8	-0.0000130
3216.8	0.0000257
3214.9	0.0000344
3213.0	0.0000051
3211.1	-0.0000168
3209.1	-0.0000212
3207.2	-0.0000301
3205.3	-0.0000433
3203.3	-0.0000536
3201.4	-0.0000593
3199.5	-0.0000499
3197.6	-0.0000251
3195.6	-0.0000038
3193.7	0.0000051
3191.8	0.0000008
3189.8	-0.0000116
3187.9	-0.0000204
3186.0	-0.0000250
3184.1	-0.0000247
3182.1	-0.0000241
3180.2	-0.0000441
3178.3	-0.0000771
3176.3	-0.0000860
3174.4	-0.0000587
3172.5	-0.0000228
3170.6	-0.0000112
3168.6	-0.0000309
3166.7	-0.0000521
3164.8	-0.0000484
3162.8	-0.0000335
3160.9	-0.0000277
3159.0	-0.0000323
3157.1	-0.0000396
3155.1	-0.0000481
3153.2	-0.0000517
3151.3	-0.0000377
3149.3	-0.0000209
3147.4	-0.0000270
3145.5	-0.0000524
3143.6	-0.0000739
3141.6	-0.0000769
3139.7	-0.0000620
3137.8	-0.0000364
3135.8	-0.0000266
3133.9	-0.0000453
3132.0	-0.0000616
3130.1	-0.0000590
3128.1	-0.0000563
3126.2	-0.0000605
3124.3	-0.0000547
3122.3	-0.0000386
3120.4	-0.0000310
3118.5	-0.0000309
3116.6	-0.0000325
3114.6	-0.0000372
3112.7	-0.0000402
3110.8	-0.0000394
3108.8	-0.0000327
3106.9	-0.0000180
3105.0	-0.0000075
3103.1	-0.0000165
3101.1	-0.0000354
3099.2	-0.0000451
3097.3	-0.0000459
3095.3	-0.0000421
3093.4	-0.0000374
3091.5	-0.0000483
3089.6	-0.0000695
3087.6	-0.0000732
3085.7	-0.0000624
3083.8	-0.0000520
3081.8	-0.0000348
3079.9	-0.0000140
3078.0	-0.0000020
3076.1	0.0000024
3074.1	-0.0000020
3072.2	-0.0000199
3070.3	-0.0000387
3068.3	-0.0000425
3066.4	-0.0000394
3064.5	-0.0000344
3062.6	-0.0000185
3060.6	-0.0000063
3058.7	-0.0000078
3056.8	-0.0000061
3054.8	-0.0000008
3052.9	-0.0000036
3051.0	-0.0000099
3049.1	-0.0000098
3047.1	-0.0000072
3045.2	-0.0000078
3043.3	-0.0000011
3041.3	0.0000097
3039.4	0.0000088
3037.5	0.0000011
3035.6	-0.0000025
3033.6	-0.0000034
3031.7	-0.0000112
3029.8	-0.0000297
3027.8	-0.0000459
3025.9	-0.0000440
3024.0	-0.0000194
3022.1	0.0000114
3020.1	0.0000168
3018.2	-0.0000024
3016.3	-0.0000132
3014.3	-0.0000060
3012.4	0.0000078
3010.5	0.0000225
3008.6	0.0000280
3006.6	0.0000162
3004.7	-0.0000032
3002.8	-0.0000136
3000.8	-0.0000067
2998.9	0.0000118
2997.0	0.0000274
2995.1	0.0000262
2993.1	0.0000172
2991.2	0.0000151
2989.3	0.0000104
2987.3	0.0000083
2985.4	0.0000279
2983.5	0.0000508
2981.6	0.0000534
2979.6	0.0000404
2977.7	0.0000283
2975.8	0.0000305
2973.8	0.0000449
2971.9	0.0000667
2970.0	0.0000940
2968.1	0.0001180
2966.1	0.0001337
2964.2	0.0001388
2962.3	0.0001265
2960.3	0.0001062
2958.4	0.0000975
2956.5	0.0001022
2954.6	0.0001077
2952.6	0.0001090
2950.7	0.0001145
2948.8	0.0001244
2946.8	0.0001233
2944.9	0.0001121
2943.0	0.0001038
2941.1	0.0000937
2939.1	0.0000862
2937.2	0.0000963
2935.3	0.0001159
2933.3	0.0001300
2931.4	0.0001288
2929.5	0.0001227
2927.6	0.0001383
2925.6	0.0001584
2923.7	0.0001528
2921.8	0.0001395
2919.8	0.0001306
2917.9	0.0001149
2916.0	0.0001006
2914.1	0.0000932
2912.1	0.0000877
2910.2	0.0000912
2908.3	0.0001034
2906.3	0.0001126
2904.4	0.0001119
2902.5	0.0001046
2900.6	0.0001038
2898.6	0.0001097
2896.7	0.0001093
2894.8	0.0001000
2892.8	0.0000873
2890.9	0.0000782
2889.0	0.0000781
2887.1	0.0000780
2885.1	0.0000658
2883.2	0.0000595
2881.3	0.0000782
2879.3	0.0000966
2877.4	0.0000878
2875.5	0.0000734
2873.6	0.0000795
2871.6	0.0000930
2869.7	0.0000975
2867.8	0.0000948
2865.8	0.0000890
2863.9	0.0000867
2862.0	0.0000990
2860.1	0.0001192
2858.1	0.0001259
2856.2	0.0001193
2854.3	0.0001109
2852.3	0.0001007
2850.4	0.0000900
2848.5	0.0000821
2846.6	0.0000830
2844.6	0.0000948
2842.7	0.0001029
2840.8	0.0000943
2838.8	0.0000769
2836.9	0.0000669
2835.0	0.0000646
2833.1	0.0000565
2831.1	0.0000455
2829.2	0.0000454
2827.3	0.0000477
2825.3	0.0000434
2823.4	0.0000470
2821.5	0.0000550
2819.6	0.0000551
2817.6	0.0000555
2815.7	0.0000567
2813.8	0.0000517
2811.8	0.0000456
2809.9	0.0000473
2808.0	0.0000588
2806.1	0.0000660
2804.1	0.0000560
2802.2	0.0000414
2800.3	0.0000343
2798.3	0.0000254
2796.4	0.0000166
2794.5	0.0000226
2792.6	0.0000308
2790.6	0.0000211
2788.7	0.0000078
2786.8	0.0000094
2784.8	0.0000165
2782.9	0.0000174
2781.0	0.0000179
2779.1	0.0000222
2777.1	0.0000281
2775.2	0.0000288
2773.3	0.0000162
2771.3	0.0000016
2769.4	0.0000054
2767.5	0.0000308
2765.6	0.0000593
2763.6	0.0000636
2761.7	0.0000527
2759.8	0.0000544
2757.8	0.0000588
2755.9	0.0000542
2754.0	0.0000518
2752.1	0.0000486
2750.1	0.0000392
2748.2	0.0000378
2746.3	0.0000437
2744.3	0.0000418
2742.4	0.0000397
2740.5	0.0000480
2738.6	0.0000576
2736.6	0.0000579
2734.7	0.0000500
2732.8	0.0000473
2730.8	0.0000614
2728.9	0.0000730
2727.0	0.0000586
2725.1	0.0000435
2723.1	0.0000564
2721.2	0.0000717
2719.3	0.0000624
2717.3	0.0000381
2715.4	0.0000195
2713.5	0.0000200
2711.6	0.0000339
2709.6	0.0000442
2707.7	0.0000449
2705.8	0.0000392
2703.8	0.0000420
2701.9	0.0000618
2700.0	0.0000767
2698.1	0.0000687
2696.1	0.0000521
2694.2	0.0000450
2692.3	0.0000482
2690.3	0.0000534
2688.4	0.0000539
2686.5	0.0000456
2684.6	0.0000273
2682.6	0.0000063
2680.7	0.0000014
2678.8	0.0000175
2676.8	0.0000412
2674.9	0.0000592
2673.0	0.0000623
2671.1	0.0000551
2669.1	0.0000522
2667.2	0.0000570
2665.3	0.0000601
2663.3	0.0000571
2661.4	0.0000529
2659.5	0.0000509
2657.6	0.0000573
2655.6	0.0000675
2653.7	0.0000671
2651.8	0.0000573
2649.8	0.0000479
2647.9	0.0000456
2646.0	0.0000481
2644.1	0.0000499
2642.1	0.0000516
2640.2	0.0000517
2638.3	0.0000486
2636.3	0.0000534
2634.4	0.0000736
2632.5	0.0000880
2630.6	0.0000736
2628.6	0.0000498
2626.7	0.0000483
2624.8	0.0000530
2622.8	0.0000333
2620.9	0.0000111
2619.0	0.0000173
2617.1	0.0000439
2615.1	0.0000657
2613.2	0.0000638
2611.3	0.0000506
2609.3	0.0000521
2607.4	0.0000686
2605.5	0.0000828
2603.6	0.0000784
2601.6	0.0000501
2599.7	0.0000252
2597.8	0.0000282
2595.8	0.0000419
2593.9	0.0000494
2592.0	0.0000534
2590.1	0.0000560
2588.1	0.0000522
2586.2	0.0000442
2584.3	0.0000451
2582.3	0.0000500
2580.4	0.0000473
2578.5	0.0000393
2576.6	0.0000308
2574.6	0.0000281
2572.7	0.0000266
2570.8	0.0000209
2568.8	0.0000232
2566.9	0.0000306
2565.0	0.0000293
2563.1	0.0000266
2561.1	0.0000282
2559.2	0.0000253
2557.3	0.0000220
2555.3	0.0000212
2553.4	0.0000203
2551.5	0.0000269
2549.6	0.0000361
2547.6	0.0000381
2545.7	0.0000409
2543.8	0.0000439
2541.8	0.0000411
2539.9	0.0000415
2538.0	0.0000488
2536.1	0.0000577
2534.1	0.0000581
2532.2	0.0000383
2530.3	0.0000139
2528.3	0.0000073
2526.4	0.0000198
2524.5	0.0000430
2522.6	0.0000644
2520.6	0.0000737
2518.7	0.0000693
2516.8	0.0000550
2514.8	0.0000381
2512.9	0.0000251
2511.0	0.0000210
2509.1	0.0000257
2507.1	0.0000281
2505.2	0.0000248
2503.3	0.0000272
2501.3	0.0000411
2499.4	0.0000597
2497.5	0.0000687
2495.6	0.0000637
2493.6	0.0000540
2491.7	0.0000377
2489.8	0.0000223
2487.8	0.0000235
2485.9	0.0000255
2484.0	0.0000174
2482.1	0.0000165
2480.1	0.0000296
2478.2	0.0000420
2476.3	0.0000375
2474.3	0.0000232
2472.4	0.0000168
2470.5	0.0000209
2468.6	0.0000292
2466.6	0.0000335
2464.7	0.0000346
2462.8	0.0000364
2460.8	0.0000339
2458.9	0.0000297
2457.0	0.0000292
2455.1	0.0000292
2453.1	0.0000292
2451.2	0.0000296
2449.3	0.0000351
2447.3	0.0000495
2445.4	0.0000646
2443.5	0.0000701
2441.6	0.0000585
2439.6	0.0000343
2437.7	0.0000229
2435.8	0.0000354
2433.8	0.0000511
2431.9	0.0000549
2430.0	0.0000495
2428.1	0.0000382
2426.1	0.0000295
2424.2	0.0000319
2422.3	0.0000381
2420.3	0.0000391
2418.4	0.0000397
2416.5	0.0000469
2414.6	0.0000551
2412.6	0.0000586
2410.7	0.0000592
2408.8	0.0000557
2406.8	0.0000564
2404.9	0.0000633
2403.0	0.0000635
2401.1	0.0000504
2399.1	0.0000293
2397.2	0.0000173
2395.3	0.0000216
2393.3	0.0000229
2391.4	0.0000190
2389.5	0.0000323
2387.6	0.0000566
2385.6	0.0000621
2383.7	0.0000511
2381.8	0.0000458
2379.8	0.0000462
2377.9	0.0000428
2376.0	0.0000384
2374.1	0.0000378
2372.1	0.0000428
2370.2	0.0000442
2368.3	0.0000292
2366.3	0.0000124
2364.4	0.0000088
2362.5	0.0000017
2360.6	-0.0000070
2358.6	0.0000032
2356.7	0.0000167
2354.8	0.0000182
2352.8	0.0000252
2350.9	0.0000414
2349.0	0.0000525
2347.1	0.0000514
2345.1	0.0000378
2343.2	0.0000238
2341.3	0.0000194
2339.3	0.0000216
2337.4	0.0000223
2335.5	0.0000116
2333.6	-0.0000026
2331.6	-0.0000058
2329.7	0.0000024
2327.8	0.0000173
2325.8	0.0000253
2323.9	0.0000170
2322.0	0.0000107
2320.1	0.0000224
2318.1	0.0000402
2316.2	0.0000512
2314.3	0.0000590
2312.3	0.0000650
2310.4	0.0000573
2308.5	0.0000338
2306.6	0.0000158
2304.6	0.0000173
2302.7	0.0000308
2300.8	0.0000364
2298.8	0.0000205
2296.9	0.0000042
2295.0	0.0000118
2293.1	0.0000262
2291.1	0.0000304
2289.2	0.0000343
2287.3	0.0000393
2285.3	0.0000350
2283.4	0.0000266
2281.5	0.0000263
2279.6	0.0000307
2277.6	0.0000263
2275.7	0.0000134
2273.8	0.0000024
2271.8	-0.0000110
2269.9	-0.0000304
2268.0	-0.0000418
2266.1	-0.0000367
2264.1	-0.0000254
2262.2	-0.0000206
2260.3	-0.0000188
2258.3	-0.0000116
2256.4	-0.0000085
2254.5	-0.0000114
2252.6	-0.0000080
2250.6	-0.0000051
2248.7	-0.0000081
2246.8	-0.0000043
2244.8	0.0000037
2242.9	0.0000015
2241.0	-0.0000070
2239.1	-0.0000079
2237.1	-0.0000033
2235.2	-0.0000069
2233.3	-0.0000176
2231.3	-0.0000245
2229.4	-0.0000285
2227.5	-0.0000320
2225.6	-0.0000295
2223.6	-0.0000206
2221.7	-0.0000095
2219.8	-0.0000080
2217.8	-0.0000225
2215.9	-0.0000321
2214.0	-0.0000265
2212.1	-0.0000224
2210.1	-0.0000267
2208.2	-0.0000366
2206.3	-0.0000447
2204.3	-0.0000411
2202.4	-0.0000335
2200.5	-0.0000271
2198.6	-0.0000167
2196.6	-0.0000122
2194.7	-0.0000203
2192.8	-0.0000292
2190.8	-0.0000375
2188.9	-0.0000468
2187.0	-0.0000483
2185.1	-0.0000412
2183.1	-0.0000275
2181.2	-0.0000157
2179.3	-0.0000184
2177.3	-0.0000311
2175.4	-0.0000451
2173.5	-0.0000536
2171.6	-0.0000486
2169.6	-0.0000319
2167.7	-0.0000200
2165.8	-0.0000243
2163.8	-0.0000349
2161.9	-0.0000373
2160.0	-0.0000307
2158.1	-0.0000292
2156.1	-0.0000329
2154.2	-0.0000249
2152.3	-0.0000187
2150.3	-0.0000362
2148.4	-0.0000588
2146.5	-0.0000604
2144.6	-0.0000523
2142.6	-0.0000540
2140.7	-0.0000569
2138.8	-0.0000495
2136.8	-0.0000392
2134.9	-0.0000305
2133.0	-0.0000194
2131.1	-0.0000082
2129.1	-0.0000035
2127.2	-0.0000065
2125.3	-0.0000136
2123.3	-0.0000189
2121.4	-0.0000152
2119.5	-0.0000044
2117.6	0.0000002
2115.6	-0.0000083
2113.7	-0.0000205
2111.8	-0.0000188
2109.8	-0.0000003
2107.9	0.0000174
2106.0	0.0000253
2104.1	0.0000310
2102.1	0.0000434
2100.2	0.0000612
2098.3	0.0000802
2096.3	0.0001160
2094.4	0.0001926
2092.5	0.0003488
2090.6	0.0006820
2088.6	0.0012854
2086.7	0.0020517
2084.8	0.0026297
2082.8	0.0027432
2080.9	0.0024624
2079.0	0.0020395
2077.1	0.0016420
2075.1	0.0013163
2073.2	0.0010575
2071.3	0.0008507
2069.3	0.0006973
2067.4	0.0005933
2065.5	0.0005075
2063.6	0.0004229
2061.6	0.0003512
2059.7	0.0002958
2057.8	0.0002460
2055.8	0.0002022
2053.9	0.0001774
2052.0	0.0001652
2050.1	0.0001411
2048.1	0.0000978
2046.2	0.0000601
2044.3	0.0000508
2042.3	0.0000546
2040.4	0.0000490
2038.5	0.0000338
2036.6	0.0000122
2034.6	-0.0000098
2032.7	-0.0000186
2030.8	-0.0000133
2028.8	-0.0000044
2026.9	0.0000025
2025.0	0.0000094
2023.1	0.0000168
2021.1	0.0000132
2019.2	-0.0000029
2017.3	-0.0000167
2015.3	-0.0000245
2013.4	-0.0000295
2011.5	-0.0000289
2009.6	-0.0000224
2007.6	-0.0000126
2005.7	-0.0000075
2003.8	-0.0000063
2001.8	-0.0000056
1999.9	-0.0000132
1998.0	-0.0000240
1996.1	-0.0000277
1994.1	-0.0000265
1992.2	-0.0000246
1990.3	-0.0000286
1988.3	-0.0000367
1986.4	-0.0000359
1984.5	-0.0000281
1982.6	-0.0000239
1980.6	-0.0000196
1978.7	-0.0000077
1976.8	0.0000069
1974.8	0.0000125
1972.9	0.0000042
1971.0	-0.0000121
1969.1	-0.0000249
1967.1	-0.0000240
1965.2	-0.0000062
1963.3	0.0000146
1961.4	0.0000205
1959.4	0.0000132
1957.5	0.0000065
1955.6	0.0000062
1953.6	0.0000079
1951.7	0.0000114
1949.8	0.0000136
1947.9	0.0000053
1945.9	-0.0000081
1944.0	-0.0000140
1942.1	-0.0000047
1940.1	0.0000124
1938.2	0.0000112
1936.3	-0.0000011
1934.4	0.0000051
1932.4	0.0000223
1930.5	0.0000363
1928.6	0.0000417
1926.6	0.0000257
1924.7	0.0000004
1922.8	-0.0000143
1920.9	-0.0000285
1918.9	-0.0000389
1917.0	-0.0000266
1915.1	-0.0000024
1913.1	0.0000140
1911.2	0.0000209
1909.3	0.0000205
1907.4	0.0000151
1905.4	0.0000125
1903.5	0.0000196
1901.6	0.0000337
1899.6	0.0000476
1897.7	0.0000570
1895.8	0.0000596
1893.9	0.0000542
1891.9	0.0000408
1890.0	0.0000317
1888.1	0.0000420
1886.1	0.0000645
1884.2	0.0000885
1882.3	0.0001178
1880.4	0.0001455
1878.4	0.0001573
1876.5	0.0001604
1874.6	0.0001727
1872.6	0.0001906
1870.7	0.0001986
1868.8	0.0002039
1866.9	0.0002139
1864.9	0.0002153
1863.0	0.0002138
1861.1	0.0002160
1859.1	0.0002122
1857.2	0.0002074
1855.3	0.0002002
1853.4	0.0001816
1851.4	0.0001600
1849.5	0.0001420
1847.6	0.0001196
1845.6	0.0000858
1843.7	0.0000633
1841.8	0.0000753
1839.9	0.0000982
1837.9	0.0001004
1836.0	0.0000839
1834.1	0.0000625
1832.1	0.0000386
1830.2	0.0000190
1828.3	0.0000092
1826.4	0.0000025
1824.4	0.0000125
1822.5	0.0000395
1820.6	0.0000458
1818.6	0.0000281
1816.7	0.0000140
1814.8	0.0000071
1812.9	-0.0000008
1810.9	-0.0000066
1809.0	-0.0000083
1807.1	-0.0000093
1805.1	-0.0000150
1803.2	-0.0000262
1801.3	-0.0000329
1799.4	-0.0000330
1797.4	-0.0000323
1795.5	-0.0000413
1793.6	-0.0000624
1791.6	-0.0000629
1789.7	-0.0000295
1787.8	-0.0000023
1785.9	-0.0000004
1783.9	-0.0000094
1782.0	-0.0000213
1780.1	-0.0000298
1778.1	-0.0000319
1776.2	-0.0000518
1774.3	-0.0001025
1772.4	-0.0001333
1770.4	-0.0001097
1768.5	-0.0000708
1766.6	-0.0000407
1764.6	-0.0000227
1762.7	-0.0000274
1760.8	-0.0000422
1758.9	-0.0000502
1756.9	-0.0000382
1755.0	-0.0000188
1753.1	-0.0000369
1751.1	-0.0000739
1749.2	-0.0000682
1747.3	-0.0000284
1745.4	-0.0000043
1743.4	-0.0000149
1741.5	-0.0000424
1739.6	-0.0000471
1737.6	-0.0000444
1735.7	-0.0000883
1733.8	-0.0001226
1731.9	-0.0000705
1729.9	0.0000119
1728.0	0.0000575
1726.1	0.0000702
1724.1	0.0000761
1722.2	0.0000727
1720.3	0.0000169
1718.4	-0.0000663
1716.4	-0.0000725
1714.5	-0.0000016
1712.6	0.0000585
1710.6	0.0000791
1708.7	0.0000679
1706.8	0.0000435
1704.9	0.0000179
1702.9	-0.0000485
1701.0	-0.0001363
1699.1	-0.0001653
1697.1	-0.0001521
1695.2	-0.0001065
1693.3	-0.0000070
1691.4	0.0000680
1689.4	0.0000714
1687.5	0.0000189
1685.6	-0.0000646
1683.6	-0.0000873
1681.7	-0.0000223
1679.8	0.0000361
1677.9	0.0000352
1675.9	0.0000093
1674.0	-0.0000028
1672.1	-0.0000163
1670.1	-0.0000302
1668.2	-0.0000059
1666.3	0.0000355
1664.4	0.0000429
1662.4	0.0000383
1660.5	0.0000636
1658.6	0.0000794
1656.6	0.0000055
1654.7	-0.0001474
1652.8	-0.0002132
1650.9	-0.0001161
1648.9	-0.0000281
1647.0	-0.0000278
1645.1	-0.0000120
1643.1	0.0000335
1641.2	0.0000432
1639.3	0.0000031
1637.4	-0.0000704
1635.4	-0.0001170
1633.5	-0.0000875
1631.6	-0.0000380
1629.6	-0.0000171
1627.7	-0.0000028
1625.8	0.0000124
1623.9	0.0000266
1621.9	0.0000529
1620.0	0.0000570
1618.1	0.0000085
1616.1	-0.0000202
1614.2	0.0000237
1612.3	0.0000898
1610.4	0.0001390
1608.4	0.0001650
1606.5	0.0001643
1604.6	0.0001539
1602.6	0.0001530
1600.7	0.0001554
1598.8	0.0001473
1596.9	0.0001401
1594.9	0.0001471
1593.0	0.0001569
1591.1	0.0001557
1589.1	0.0001490
1587.2	0.0001467
1585.3	0.0001443
1583.4	0.0001412
1581.4	0.0001422
1579.5	0.0001186
1577.6	0.0000554
1575.6	0.0000295
1573.7	0.0000706
1571.8	0.0000889
1569.9	0.0000765
1567.9	0.0000963
1566.0	0.0001279
1564.1	0.0001151
1562.1	0.0000157
1560.2	-0.0001252
1558.3	-0.0001504
1556.4	-0.0000487
1554.4	0.0000461
1552.5	0.0001010
1550.6	0.0001356
1548.6	0.0001381
1546.7	0.0001010
1544.8	0.0000381
1542.9	-0.0000422
1540.9	-0.0001168
1539.0	-0.0001026
1537.1	-0.0000119
1535.1	0.0000316
1533.2	0.0000274
1531.3	0.0000442
1529.4	0.0000525
1527.4	0.0000200
1525.5	-0.0000318
1523.6	-0.0000955
1521.6	-0.0001302
1519.7	-0.0000860
1517.8	-0.0000201
1515.9	0.0000084
1513.9	0.0000189
1512.0	0.0000209
1510.1	-0.0000136
1508.1	-0.0000864
1506.2	-0.0001101
1504.3	-0.0000393
1502.4	0.0000257
1500.4	0.0000155
1498.5	-0.0000355
1496.6	-0.0000556
1494.6	-0.0000126
1492.7	0.0000307
1490.8	0.0000242
1488.9	0.0000106
1486.9	0.0000291
1485.0	0.0000624
1483.1	0.0000835
1481.1	0.0000847
1479.2	0.0000706
1477.3	0.0000378
1475.4	-0.0000239
1473.4	-0.0000816
1471.5	-0.0000712
1469.6	-0.0000105
1467.6	0.0000160
1465.7	0.0000051
1463.8	0.0000227
1461.9	0.0000526
1459.9	0.0000062
1458.0	-0.0001036
1456.1	-0.0001522
1454.1	-0.0001119
1452.2	-0.0000660
1450.3	-0.0000420
1448.4	-0.0000236
1446.4	-0.0000045
1444.5	0.0000112
1442.6	0.0000052
1440.6	-0.0000268
1438.7	-0.0000782
1436.8	-0.0001150
1434.9	-0.0000911
1432.9	-0.0000394
1431.0	-0.0000156
1429.1	-0.0000124
1427.1	-0.0000017
1425.2	0.0000194
1423.3	0.0000267
1421.4	0.0000064
1419.4	-0.0000015
1417.5	0.0000399
1415.6	0.0000925
1413.6	0.0001159
1411.7	0.0001244
1409.8	0.0001304
1407.9	0.0001131
1405.9	0.0000675
1404.0	0.0000255
1402.1	0.0000097
1400.1	0.0000155
1398.2	0.0000250
1396.3	0.0000172
1394.4	0.0000099
1392.4	0.0000297
1390.5	0.0000476
1388.6	0.0000422
1386.6	0.0000415
1384.7	0.0000476
1382.8	0.0000419
1380.9	0.0000441
1378.9	0.0000667
1377.0	0.0000840
1375.1	0.0000843
1373.1	0.0000856
1371.2	0.0000849
1369.3	0.0000725
1367.4	0.0000658
1365.4	0.0000658
1363.5	0.0000632
1361.6	0.0000736
1359.6	0.0000963
1357.7	0.0001027
1355.8	0.0000800
1353.9	0.0000496
1351.9	0.0000417
1350.0	0.0000584
1348.1	0.0000753
1346.1	0.0000769
1344.2	0.0000670
1342.3	0.0000514
1340.4	0.0000358
1338.4	0.0000300
1336.5	0.0000363
1334.6	0.0000432
1332.6	0.0000418
1330.7	0.0000351
1328.8	0.0000313
1326.9	0.0000379
1324.9	0.0000491
1323.0	0.0000503
1321.1	0.0000449
1319.1	0.0000502
1317.2	0.0000584
1315.3	0.0000461
1313.4	0.0000307
1311.4	0.0000410
1309.5	0.0000559
1307.6	0.0000535
1305.6	0.0000534
1303.7	0.0000599
1301.8	0.0000478
1299.9	0.0000221
1297.9	0.0000106
1296.0	0.0000151
1294.1	0.0000220
1292.1	0.0000344
1290.2	0.0000499
1288.3	0.0000597
1286.4	0.0000743
1284.4	0.0000886
1282.5	0.0000883
1280.6	0.0000930
1278.6	0.0001143
1276.7	0.0001372
1274.8	0.0001602
1272.9	0.0001899
1270.9	0.0002137
1269.0	0.0002157
1267.1	0.0002067
1265.1	0.0002129
1263.2	0.0002335
1261.3	0.0002528
1259.4	0.0002785
1257.4	0.0003107
1255.5	0.0003250
1253.6	0.0003233
1251.6	0.0003326
1249.7	0.0003552
1247.8	0.0003740
1245.9	0.0003834
1243.9	0.0003929
1242.0	0.0004227
1240.1	0.0004698
1238.1	0.0005003
1236.2	0.0005105
1234.3	0.0005148
1232.4	0.0005084
1230.4	0.0004930
1228.5	0.0004910
1226.6	0.0005097
1224.6	0.0005187
1222.7	0.0005043
1220.8	0.0004944
1218.9	0.0005077
1216.9	0.0005307
1215.0	0.0005410
1213.1	0.0005428
1211.1	0.0005504
1209.2	0.0005515
1207.3	0.0005449
1205.4	0.0005492
1203.4	0.0005578
1201.5	0.0005579
1199.6	0.0005503
1197.6	0.0005230
1195.7	0.0004855
1193.8	0.0004707
1191.9	0.0004831
1189.9	0.0005077
1188.0	0.0005242
1186.1	0.0005208
1184.1	0.0005134
1182.2	0.0005007
1180.3	0.0004712
1178.4	0.0004543
1176.4	0.0004547
1174.5	0.0004436
1172.6	0.0004408
1170.6	0.0004739
1168.7	0.0005102
1166.8	0.0005120
1164.9	0.0004919
1162.9	0.0004766
1161.0	0.0004599
1159.1	0.0004364
1157.1	0.0004356
1155.2	0.0004583
1153.3	0.0004558
1151.4	0.0004259
1149.4	0.0004157
1147.5	0.0004256
1145.6	0.0004195
1143.6	0.0003935
1141.7	0.0003773
1139.8	0.0003810
1137.9	0.0003738
1135.9	0.0003408
1134.0	0.0003262
1132.1	0.0003522
1130.1	0.0003634
1128.2	0.0003405
1126.3	0.0003294
1124.4	0.0003280
1122.4	0.0003065
1120.5	0.0002817
1118.6	0.0002767
1116.6	0.0002763
1114.7	0.0002729
1112.8	0.0002797
1110.9	0.0002917
1108.9	0.0002882
1107.0	0.0002639
1105.1	0.0002445
1103.1	0.0002402
1101.2	0.0002175
1099.3	0.0001606
1097.4	0.0001080
1095.4	0.0001033
1093.5	0.0001262
1091.6	0.0001290
1089.6	0.0001150
1087.7	0.0001042
1085.8	0.0000939
1083.9	0.0000814
1081.9	0.0000772
1080.0	0.0000803
1078.1	0.0000632
1076.1	0.0000286
1074.2	0.0000084
1072.3	-0.0000022
1070.4	-0.0000036
1068.4	0.0000228
1066.5	0.0000612
1064.6	0.0000868
1062.6	0.0000996
1060.7	0.0001090
1058.8	0.0001263
1056.9	0.0001716
1054.9	0.0002376
1053.0	0.0002763
1051.1	0.0002774
1049.1	0.0002795
1047.2	0.0002833
1045.3	0.0002783
1043.4	0.0002907
1041.4	0.0003133
1039.5	0.0003190
1037.6	0.0003208
1035.6	0.0003384
1033.7	0.0003683
1031.8	0.0003908
1029.9	0.0003973
1027.9	0.0003970
1026.0	0.0004078
1024.1	0.0004212
1022.1	0.0004055
1020.2	0.0003847
1018.3	0.0003790
1016.4	0.0003655
1014.4	0.0003558
1012.5	0.0003514
1010.6	0.0003318
1008.6	0.0003011
1006.7	0.0002581
1004.8	0.0002013
1002.9	0.0001624
1000.9	0.0001574
999.0	0.0001584
997.1	0.0001318
995.1	0.0000754
993.2	0.0000203
991.3	-0.0000126
989.4	-0.0000080
987.4	0.0000079
985.5	-0.0000240
983.6	-0.0000581
981.6	-0.0000565
979.7	-0.0000822
977.8	-0.0001211
975.9	-0.0000975
973.9	-0.0000264
972.0	0.0000123
970.1	-0.0000103
968.1	-0.0000451
966.2	-0.0000356
964.3	0.0000001
962.4	0.0000029
960.4	-0.0000123
958.5	-0.0000124
956.6	-0.0000216
954.6	-0.0000423
952.7	-0.0000484
950.8	-0.0000384
948.9	-0.0000246
946.9	-0.0000191
945.0	-0.0000225
943.1	-0.0000262
941.1	-0.0000406
939.2	-0.0000753
937.3	-0.0001088
935.4	-0.0001166
933.4	-0.0001007
931.5	-0.0000829
929.6	-0.0000646
927.6	-0.0000452
925.7	-0.0000525
923.8	-0.0000819
921.9	-0.0000968
919.9	-0.0000903
918.0	-0.0000854
916.1	-0.0001148
914.1	-0.0001756
912.2	-0.0001890
910.3	-0.0001234
908.4	-0.0000757
906.4	-0.0000999
904.5	-0.0001410
902.6	-0.0001725
900.6	-0.0001689
898.7	-0.0001008
896.8	-0.0000510
894.9	-0.0000668
892.9	-0.0000809
891.0	-0.0000802
889.1	-0.0000726
887.1	-0.0000332
885.2	0.0000291
883.3	0.0000601
881.4	0.0000307
879.4	0.0000695
877.5	0.0003086
875.6	0.0005806
873.6	0.0006068
871.7	0.0003902
869.8	0.0001375
867.9	0.0000027
865.9	0.0000283
864.0	0.0001267
862.1	0.0001680
860.1	0.0001006
858.2	0.0000202
856.3	0.0000655
854.4	0.0001430
852.4	0.0000837
850.5	-0.0000641
848.6	-0.0001518
