3997.9	0.0000746
3996.0	0.0000529
3994.1	0.0000377
3992.1	0.0000417
3990.2	0.0000515
3988.3	0.0000473
3986.3	0.0000375
3984.4	0.0000409
3982.5	0.0000465
3980.6	0.0000339
3978.6	0.0000017
3976.7	-0.0000273
3974.8	-0.0000200
3972.8	0.0000131
3970.9	0.0000243
3969.0	0.0000020
3967.1	-0.0000227
3965.1	-0.0000162
3963.2	0.0000270
3961.3	0.0000711
3959.3	0.0000758
3957.4	0.0000440
3955.5	0.0000116
3953.6	-0.0000051
3951.6	-0.0000142
3949.7	-0.0000143
3947.8	-0.0000017
3945.8	0.0000038
3943.9	-0.0000055
3942.0	-0.0000134
3940.1	-0.0000235
3938.1	-0.0000350
3936.2	-0.0000317
3934.3	-0.0000272
3932.3	-0.0000327
3930.4	-0.0000297
3928.5	-0.0000124
3926.6	0.0000036
3924.6	0.0000092
3922.7	0.0000160
3920.8	0.0000273
3918.8	0.0000134
3916.9	-0.0000296
3915.0	-0.0000531
3913.1	-0.0000404
3911.1	-0.0000253
3909.2	-0.0000234
3907.3	-0.0000262
3905.3	-0.0000294
3903.4	-0.0000266
3901.5	-0.0000055
3899.6	0.0000212
3897.6	0.0000256
3895.7	0.0000158
3893.8	0.0000123
3891.8	0.0000090
3889.9	0.0000021
3888.0	0.0000013
3886.1	0.0000069
3884.1	0.0000147
3882.2	0.0000168
3880.3	0.0000060
3878.3	-0.0000070
3876.4	-0.0000082
3874.5	0.0000019
3872.6	0.0000151
3870.6	0.0000195
3868.7	0.0000062
3866.8	-0.0000178
3864.8	-0.0000329
3862.9	-0.0000276
3861.0	-0.0000195
3859.1	-0.0000248
3857.1	-0.0000301
3855.2	-0.0000198
3853.3	-0.0000075
3851.3	-0.0000144
3849.4	-0.0000353
3847.5	-0.0000490
3845.6	-0.0000416
3843.6	-0.0000200
3841.7	-0.0000150
3839.8	-0.0000314
3837.8	-0.0000344
3835.9	-0.0000145
3834.0	0.0000031
3832.1	0.0000057
3830.1	0.0000029
3828.2	-0.0000022
3826.3	-0.0000089
3824.3	-0.0000125
3822.4	-0.0000131
3820.5	-0.0000017
3818.6	0.0000233
3816.6	0.0000347
3814.7	0.0000277
3812.8	0.0000271
3810.8	0.0000405
3808.9	0.0000532
3807.0	0.0000393
3805.1	-0.0000027
3803.1	-0.0000279
3801.2	-0.0000175
3799.3	-0.0000089
3797.3	-0.0000165
3795.4	-0.0000174
3793.5	-0.0000074
3791.6	-0.0000028
3789.6	0.0000043
3787.7	0.0000239
3785.8	0.0000300
3783.8	0.0000166
3781.9	0.0000132
3780.0	0.0000158
3778.1	0.0000081
3776.1	0.0000042
3774.2	0.0000080
3772.3	0.0000069
3770.3	0.0000046
3768.4	0.0000051
3766.5	-0.0000017
3764.6	-0.0000158
3762.6	-0.0000238
3760.7	-0.0000121
3758.8	0.0000117
3756.8	0.0000223
3754.9	0.0000170
3753.0	-0.0000000
3751.1	-0.0000310
3749.1	-0.0000501
3747.2	-0.0000427
3745.3	-0.0000220
3743.3	0.0000086
3741.4	0.0000357
3739.5	0.0000390
3737.6	0.0000207
3735.6	0.0000016
3733.7	-0.0000053
3731.8	-0.0000091
3729.8	-0.0000055
3727.9	0.0000136
3726.0	0.0000236
3724.1	0.0000142
3722.1	0.0000098
3720.2	0.0000160
3718.3	0.0000205
3716.3	0.0000283
3714.4	0.0000410
3712.5	0.0000404
3710.6	0.0000233
3708.6	0.0000118
3706.7	0.0000113
3704.8	0.0000073
3702.8	-0.0000005
3700.9	0.0000014
3699.0	0.0000152
3697.1	0.0000209
3695.1	0.0000064
3693.2	-0.0000025
3691.3	0.0000139
3689.3	0.0000335
3687.4	0.0000374
3685.5	0.0000399
3683.6	0.0000481
3681.6	0.0000531
3679.7	0.0000556
3677.8	0.0000619
3675.8	0.0000753
3673.9	0.0000841
3672.0	0.0000719
3670.1	0.0000471
3668.1	0.0000166
3666.2	-0.0000126
3664.3	-0.0000139
3662.3	0.0000098
3660.4	0.0000207
3658.5	0.0000148
3656.6	0.0000147
3654.6	0.0000085
3652.7	-0.0000137
3650.8	-0.0000248
3648.8	-0.0000213
3646.9	-0.0000289
3645.0	-0.0000363
3643.1	-0.0000169
3641.1	0.0000124
3639.2	0.0000310
3637.3	0.0000466
3635.3	0.0000465
3633.4	0.0000163
3631.5	-0.0000052
3629.6	0.0000024
3627.6	0.0000031
3625.7	-0.0000009
3623.8	0.0000157
3621.8	0.0000403
3619.9	0.0000592
3618.0	0.0000705
3616.1	0.0000707
3614.1	0.0000620
3612.2	0.0000481
3610.3	0.0000333
3608.3	0.0000182
3606.4	-0.0000073
3604.5	-0.0000342
3602.6	-0.0000338
3600.6	-0.0000089
3598.7	0.0000061
3596.8	0.0000025
3594.8	0.0000038
3592.9	0.0000186
3591.0	0.0000303
3589.1	0.0000306
3587.1	0.0000266
3585.2	0.0000295
3583.3	0.0000305
3581.3	0.0000134
3579.4	-0.0000016
3577.5	0.0000072
3575.6	0.0000266
3573.6	0.0000410
3571.7	0.0000377
3569.8	0.0000121
3567.8	-0.0000061
3565.9	0.0000105
3564.0	0.0000342
3562.1	0.0000297
3560.1	0.0000200
3558.2	0.0000357
3556.3	0.0000585
3554.3	0.0000513
3552.4	0.0000061
3550.5	-0.0000388
3548.6	-0.0000376
3546.6	0.0000019
3544.7	0.0000326
3542.8	0.0000329
3540.8	0.0000151
3538.9	-0.0000070
3537.0	-0.0000121
3535.1	0.0000182
3533.1	0.0000595
3531.2	0.0000694
3529.3	0.0000481
3527.3	0.0000222
3525.4	0.0000002
3523.5	-0.0000107
3521.6	0.0000023
3519.6	0.0000154
3517.7	0.0000002
3515.8	-0.0000196
3513.8	-0.0000140
3511.9	0.0000056
3510.0	0.0000123
3508.1	0.0000085
3506.1	0.0000143
3504.2	0.0000193
3502.3	0.0000045
3500.3	-0.0000158
3498.4	-0.0000093
3496.5	0.0000304
3494.6	0.0000550
3492.6	0.0000224
3490.7	-0.0000287
3488.8	-0.0000402
3486.8	-0.0000218
3484.9	-0.0000048
3483.0	0.0000078
3481.1	0.0000094
3479.1	-0.0000053
3477.2	-0.0000213
3475.3	-0.0000194
3473.3	0.0000098
3471.4	0.0000531
3469.5	0.0000862
3467.6	0.0000922
3465.6	0.0000727
3463.7	0.0000494
3461.8	0.0000279
3459.8	0.0000043
3457.9	-0.0000116
3456.0	-0.0000144
3454.1	-0.0000120
3452.1	-0.0000138
3450.2	-0.0000154
3448.3	-0.0000042
3446.3	0.0000108
3444.4	0.0000103
3442.5	-0.0000036
3440.6	-0.0000017
3438.6	0.0000229
3436.7	0.0000314
3434.8	0.0000148
3432.8	0.0000062
3430.9	0.0000097
3429.0	0.0000082
3427.1	-0.0000014
3425.1	-0.0000095
3423.2	0.0000008
3421.3	0.0000299
3419.3	0.0000502
3417.4	0.0000422
3415.5	0.0000160
3413.6	-0.0000190
3411.6	-0.0000547
3409.7	-0.0000642
3407.8	-0.0000407
3405.8	-0.0000123
3403.9	0.0000000
3402.0	-0.0000054
3400.1	-0.0000203
3398.1	-0.0000181
3396.2	0.0000197
3394.3	0.0000545
3392.3	0.0000468
3390.4	0.0000407
3388.5	0.0000719
3386.6	0.0000954
3384.6	0.0000824
3382.7	0.0000533
3380.8	0.0000256
3378.8	0.0000034
3376.9	-0.0000125
3375.0	-0.0000150
3373.1	0.0000020
3371.1	0.0000249
3369.2	0.0000382
3367.3	0.0000379
3365.3	0.0000253
3363.4	0.0000156
3361.5	0.0000224
3359.6	0.0000303
3357.6	0.0000293
3355.7	0.0000394
3353.8	0.0000582
3351.8	0.0000604
3349.9	0.0000549
3348.0	0.0000615
3346.1	0.0000620
3344.1	0.0000366
3342.2	0.0000017
3340.3	-0.0000195
3338.3	-0.0000177
3336.4	0.0000046
3334.5	0.0000248
3332.6	0.0000115
3330.6	-0.0000235
3328.7	-0.0000333
3326.8	-0.0000154
3324.8	0.0000014
3322.9	0.0000050
3321.0	-0.0000055
3319.1	-0.0000124
3317.1	-0.0000031
3315.2	0.0000115
3313.3	0.0000324
3311.3	0.0000624
3309.4	0.0000804
3307.5	0.0000688
3305.6	0.0000372
3303.6	0.0000025
3301.7	-0.0000155
3299.8	-0.0000058
3297.8	0.0000163
3295.9	0.0000301
3294.0	0.0000325
3292.1	0.0000300
3290.1	0.0000273
3288.2	0.0000209
3286.3	0.0000082
3284.3	-0.0000012
3282.4	0.0000056
3280.5	0.0000252
3278.6	0.0000418
3276.6	0.0000454
3274.7	0.0000318
3272.8	0.0000072
3270.8	-0.0000116
3268.9	-0.0000134
3267.0	-0.0000017
3265.1	0.0000051
3263.1	-0.0000012
3261.2	-0.0000021
3259.3	0.0000121
3257.3	0.0000215
3255.4	0.0000113
3253.5	-0.0000050
3251.6	-0.0000137
3249.6	-0.0000136
3247.7	-0.0000028
3245.8	0.0000136
3243.8	0.0000291
3241.9	0.0000365
3240.0	0.0000263
3238.1	0.0000053
3236.1	-0.0000048
3234.2	0.0000007
3232.3	0.0000075
3230.3	0.0000117
3228.4	0.0000209
3226.5	0.0000321
3224.6	0.0000328
3222.6	0.0000257
3220.7	0.0000265
3218.8	0.0000345
3216.8	0.0000374
3214.9	0.0000276
3213.0	0.0000131
3211.1	0.0000099
3209.1	0.0000076
3207.2	-0.0000097
3205.3	-0.0000305
3203.3	-0.0000425
3201.4	-0.0000393
3199.5	-0.0000166
3197.6	0.0000134
3195.6	0.0000384
3193.7	0.0000532
3191.8	0.0000470
3189.8	0.0000247
3187.9	0.0000050
3186.0	-0.0000032
3184.1	0.0000028
3182.1	0.0000127
3180.2	0.0000014
3178.3	-0.0000291
3176.3	-0.0000505
3174.4	-0.0000514
3172.5	-0.0000326
3170.6	-0.0000068
3168.6	0.0000003
3166.7	-0.0000059
3164.8	0.0000008
3162.8	0.0000156
3160.9	0.0000201
3159.0	0.0000199
3157.1	0.0000252
3155.1	0.0000215
3153.2	0.0000033
3151.3	-0.0000100
3149.3	-0.0000066
3147.4	0.0000026
3145.5	-0.0000070
3143.6	-0.0000339
3141.6	-0.0000434
3139.7	-0.0000231
3137.8	0.0000038
3135.8	0.0000130
3133.9	0.0000040
3132.0	-0.0000036
3130.1	0.0000006
3128.1	0.0000080
3126.2	0.0000081
3124.3	-0.0000024
3122.3	-0.0000232
3120.4	-0.0000432
3118.5	-0.0000462
3116.6	-0.0000320
3114.6	-0.0000096
3112.7	0.0000041
3110.8	-0.0000025
3108.8	-0.0000135
3106.9	-0.0000111
3105.0	-0.0000017
3103.1	0.0000012
3101.1	-0.0000019
3099.2	-0.0000056
3097.3	-0.0000088
3095.3	-0.0000050
3093.4	0.0000107
3091.5	0.0000203
3089.6	0.0000095
3087.6	-0.0000032
3085.7	-0.0000039
3083.8	-0.0000024
3081.8	-0.0000030
3079.9	-0.0000003
3078.0	0.0000087
3076.1	0.0000191
3074.1	0.0000217
3072.2	0.0000116
3070.3	-0.0000042
3068.3	-0.0000118
3066.4	-0.0000121
3064.5	-0.0000164
3062.6	-0.0000178
3060.6	-0.0000090
3058.7	-0.0000043
3056.8	-0.0000078
3054.8	-0.0000080
3052.9	-0.0000036
3051.0	-0.0000016
3049.1	-0.0000061
3047.1	-0.0000157
3045.2	-0.0000214
3043.3	-0.0000195
3041.3	-0.0000168
3039.4	-0.0000133
3037.5	-0.0000078
3035.6	-0.0000081
3033.6	-0.0000109
3031.7	-0.0000125
3029.8	-0.0000172
3027.8	-0.0000204
3025.9	-0.0000154
3024.0	0.0000006
3022.1	0.0000194
3020.1	0.0000251
3018.2	0.0000176
3016.3	0.0000097
3014.3	0.0000027
3012.4	-0.0000038
3010.5	-0.0000007
3008.6	0.0000117
3006.6	0.0000160
3004.7	0.0000013
3002.8	-0.0000185
3000.8	-0.0000248
2998.9	-0.0000151
2997.0	-0.0000027
2995.1	-0.0000006
2993.1	-0.0000034
2991.2	0.0000007
2989.3	-0.0000024
2987.3	-0.0000108
2985.4	0.0000002
2983.5	0.0000197
2981.6	0.0000149
2979.6	-0.0000055
2977.7	-0.0000105
2975.8	-0.0000064
2973.8	-0.0000164
2971.9	-0.0000269
2970.0	-0.0000176
2968.1	-0.0000001
2966.1	0.0000140
2964.2	0.0000217
2962.3	0.0000131
2960.3	-0.0000054
2958.4	-0.0000122
2956.5	-0.0000013
2954.6	0.0000127
2952.6	0.0000190
2950.7	0.0000214
2948.8	0.0000256
2946.8	0.0000255
2944.9	0.0000134
2943.0	-0.0000005
2941.1	-0.0000084
2939.1	-0.0000141
2937.2	-0.0000091
2935.3	0.0000104
2933.3	0.0000237
2931.4	0.0000201
2929.5	0.0000162
2927.6	0.0000192
2925.6	0.0000161
2923.7	0.0000044
2921.8	-0.0000003
2919.8	0.0000068
2917.9	0.0000100
2916.0	0.0000008
2914.1	-0.0000144
2912.1	-0.0000213
2910.2	-0.0000091
2908.3	0.0000131
2906.3	0.0000318
2904.4	0.0000449
2902.5	0.0000484
2900.6	0.0000369
2898.6	0.0000190
2896.7	0.0000136
2894.8	0.0000221
2892.8	0.0000266
2890.9	0.0000187
2889.0	0.0000081
2887.1	-0.0000003
2885.1	-0.0000165
2883.2	-0.0000323
2881.3	-0.0000250
2879.3	-0.0000014
2877.4	0.0000092
2875.5	0.0000015
2873.6	-0.0000054
2871.6	-0.0000026
2869.7	0.0000066
2867.8	0.0000217
2865.8	0.0000333
2863.9	0.0000284
2862.0	0.0000195
2860.1	0.0000203
2858.1	0.0000263
2856.2	0.0000338
2854.3	0.0000354
2852.3	0.0000207
2850.4	-0.0000003
2848.5	-0.0000079
2846.6	0.0000001
2844.6	0.0000101
2842.7	0.0000128
2840.8	0.0000072
2838.8	-0.0000048
2836.9	-0.0000109
2835.0	-0.0000039
2833.1	0.0000031
2831.1	0.0000036
2829.2	0.0000009
2827.3	-0.0000063
2825.3	-0.0000092
2823.4	0.0000020
2821.5	0.0000142
2819.6	0.0000195
2817.6	0.0000352
2815.7	0.0000571
2813.8	0.0000563
2811.8	0.0000354
2809.9	0.0000254
2808.0	0.0000307
2806.1	0.0000308
2804.1	0.0000182
2802.2	0.0000044
2800.3	-0.0000019
2798.3	0.0000003
2796.4	0.0000111
2794.5	0.0000262
2792.6	0.0000326
2790.6	0.0000261
2788.7	0.0000124
2786.8	-0.0000056
2784.8	-0.0000199
2782.9	-0.0000197
2781.0	-0.0000085
2779.1	-0.0000002
2777.1	0.0000021
2775.2	0.0000094
2773.3	0.0000222
2771.3	0.0000233
2769.4	0.0000054
2767.5	-0.0000092
2765.6	-0.0000010
2763.6	0.0000138
2761.7	0.0000187
2759.8	0.0000229
2757.8	0.0000316
2755.9	0.0000378
2754.0	0.0000359
2752.1	0.0000301
2750.1	0.0000254
2748.2	0.0000230
2746.3	0.0000250
2744.3	0.0000280
2742.4	0.0000273
2740.5	0.0000266
2738.6	0.0000267
2736.6	0.0000234
2734.7	0.0000166
2732.8	0.0000081
2730.8	0.0000055
2728.9	0.0000145
2727.0	0.0000220
2725.1	0.0000176
2723.1	0.0000128
2721.2	0.0000144
2719.3	0.0000134
2717.3	0.0000068
2715.4	0.0000017
2713.5	0.0000004
2711.6	0.0000003
2709.6	0.0000046
2707.7	0.0000068
2705.8	-0.0000033
2703.8	-0.0000092
2701.9	0.0000034
2700.0	0.0000190
2698.1	0.0000233
2696.1	0.0000198
2694.2	0.0000174
2692.3	0.0000144
2690.3	0.0000041
2688.4	-0.0000087
2686.5	-0.0000129
2684.6	-0.0000135
2682.6	-0.0000219
2680.7	-0.0000329
2678.8	-0.0000376
2676.8	-0.0000304
2674.9	-0.0000062
2673.0	0.0000224
2671.1	0.0000379
2669.1	0.0000349
2667.2	0.0000189
2665.3	0.0000068
2663.3	0.0000099
2661.4	0.0000219
2659.5	0.0000272
2657.6	0.0000234
2655.6	0.0000181
2653.7	0.0000076
2651.8	-0.0000076
2649.8	-0.0000147
2647.9	-0.0000145
2646.0	-0.0000170
2644.1	-0.0000147
2642.1	-0.0000011
2640.2	0.0000128
2638.3	0.0000188
2636.3	0.0000235
2634.4	0.0000364
2632.5	0.0000510
2630.6	0.0000536
2628.6	0.0000470
2626.7	0.0000449
2624.8	0.0000411
2622.8	0.0000162
2620.9	-0.0000177
2619.0	-0.0000250
2617.1	-0.0000005
2615.1	0.0000257
2613.2	0.0000350
2611.3	0.0000371
2609.3	0.0000332
2607.4	0.0000243
2605.5	0.0000287
2603.6	0.0000403
2601.6	0.0000361
2599.7	0.0000232
2597.8	0.0000184
2595.8	0.0000211
2593.9	0.0000283
2592.0	0.0000337
2590.1	0.0000284
2588.1	0.0000180
2586.2	0.0000091
2584.3	0.0000009
2582.3	-0.0000040
2580.4	-0.0000059
2578.5	-0.0000105
2576.6	-0.0000157
2574.6	-0.0000173
2572.7	-0.0000130
2570.8	0.0000013
2568.8	0.0000177
2566.9	0.0000201
2565.0	0.0000131
2563.1	0.0000120
2561.1	0.0000091
2559.2	-0.0000043
2557.3	-0.0000084
2555.3	-0.0000002
2553.4	0.0000027
2551.5	0.0000042
2549.6	0.0000077
2547.6	0.0000138
2545.7	0.0000297
2543.8	0.0000387
2541.8	0.0000278
2539.9	0.0000169
2538.0	0.0000221
2536.1	0.0000364
2534.1	0.0000418
2532.2	0.0000293
2530.3	0.0000125
2528.3	0.0000067
2526.4	0.0000106
2524.5	0.0000225
2522.6	0.0000305
2520.6	0.0000222
2518.7	0.0000165
2516.8	0.0000242
2514.8	0.0000249
2512.9	0.0000111
2511.0	-0.0000024
2509.1	-0.0000041
2507.1	0.0000030
2505.2	0.0000114
2503.3	0.0000170
2501.3	0.0000183
2499.4	0.0000144
2497.5	0.0000054
2495.6	0.0000008
2493.6	0.0000085
2491.7	0.0000156
2489.8	0.0000129
2487.8	0.0000099
2485.9	0.0000047
2484.0	-0.0000057
2482.1	-0.0000035
2480.1	0.0000181
2478.2	0.0000323
2476.3	0.0000194
2474.3	-0.0000032
2472.4	-0.0000174
2470.5	-0.0000182
2468.6	-0.0000058
2466.6	0.0000079
2464.7	0.0000148
2462.8	0.0000141
2460.8	0.0000081
2458.9	0.0000060
2457.0	0.0000061
2455.1	0.0000005
2453.1	-0.0000051
2451.2	-0.0000044
2449.3	0.0000058
2447.3	0.0000200
2445.4	0.0000266
2443.5	0.0000246
2441.6	0.0000181
2439.6	0.0000092
2437.7	0.0000053
2435.8	0.0000101
2433.8	0.0000156
2431.9	0.0000113
2430.0	-0.0000050
2428.1	-0.0000242
2426.1	-0.0000340
2424.2	-0.0000274
2422.3	-0.0000052
2420.3	0.0000102
2418.4	-0.0000011
2416.5	-0.0000155
2414.6	-0.0000093
2412.6	0.0000050
2410.7	0.0000158
2408.8	0.0000203
2406.8	0.0000234
2404.9	0.0000293
2403.0	0.0000284
2401.1	0.0000150
2399.1	-0.0000063
2397.2	-0.0000161
2395.3	-0.0000067
2393.3	-0.0000051
2391.4	-0.0000131
2389.5	-0.0000015
2387.6	0.0000252
2385.6	0.0000356
2383.7	0.0000218
2381.8	0.0000021
2379.8	-0.0000086
2377.9	-0.0000097
2376.0	-0.0000071
2374.1	-0.0000003
2372.1	0.0000075
2370.2	0.0000048
2368.3	-0.0000050
2366.3	-0.0000112
2364.4	-0.0000211
2362.5	-0.0000365
2360.6	-0.0000418
2358.6	-0.0000292
2356.7	-0.0000117
2354.8	-0.0000039
2352.8	0.0000024
2350.9	0.0000160
2349.0	0.0000269
2347.1	0.0000298
2345.1	0.0000306
2343.2	0.0000364
2341.3	0.0000427
2339.3	0.0000413
2337.4	0.0000372
2335.5	0.0000354
2333.6	0.0000325
2331.6	0.0000263
2329.7	0.0000222
2327.8	0.0000228
2325.8	0.0000154
2323.9	0.0000036
2322.0	0.0000056
2320.1	0.0000159
2318.1	0.0000174
2316.2	0.0000098
2314.3	0.0000029
2312.3	0.0000018
2310.4	0.0000032
2308.5	-0.0000009
2306.6	-0.0000085
2304.6	-0.0000075
2302.7	0.0000010
2300.8	0.0000094
2298.8	0.0000140
2296.9	0.0000103
2295.0	0.0000046
2293.1	0.0000066
2291.1	0.0000112
2289.2	0.0000097
2287.3	0.0000028
2285.3	-0.0000026
2283.4	-0.0000007
2281.5	0.0000054
2279.6	0.0000077
2277.6	0.0000011
2275.7	-0.0000101
2273.8	-0.0000127
2271.8	-0.0000079
2269.9	-0.0000152
2268.0	-0.0000344
2266.1	-0.0000429
2264.1	-0.0000370
2262.2	-0.0000325
2260.3	-0.0000263
2258.3	-0.0000138
2256.4	-0.0000080
2254.5	-0.0000082
2252.6	-0.0000032
2250.6	0.0000007
2248.7	-0.0000002
2246.8	0.0000046
2244.8	0.0000126
2242.9	0.0000157
2241.0	0.0000172
2239.1	0.0000195
2237.1	0.0000168
2235.2	0.0000098
2233.3	0.0000056
2231.3	0.0000021
2229.4	-0.0000045
2227.5	-0.0000065
2225.6	0.0000011
2223.6	0.0000110
2221.7	0.0000150
2219.8	0.0000091
2217.8	-0.0000035
2215.9	-0.0000103
2214.0	-0.0000088
2212.1	-0.0000038
2210.1	0.0000045
2208.2	0.0000018
2206.3	-0.0000153
2204.3	-0.0000225
2202.4	-0.0000110
2200.5	0.0000105
2198.6	0.0000320
2196.6	0.0000312
2194.7	0.0000047
2192.8	-0.0000142
2190.8	-0.0000118
2188.9	-0.0000076
2187.0	-0.0000079
2185.1	-0.0000070
2183.1	-0.0000041
2181.2	0.0000001
2179.3	0.0000011
2177.3	-0.0000048
2175.4	-0.0000164
2173.5	-0.0000256
2171.6	-0.0000213
2169.6	-0.0000108
2167.7	-0.0000098
2165.8	-0.0000124
2163.8	-0.0000110
2161.9	-0.0000113
2160.0	-0.0000118
2158.1	-0.0000105
2156.1	-0.0000030
2154.2	0.0000137
2152.3	0.0000181
2150.3	0.0000016
2148.4	-0.0000086
2146.5	0.0000034
2144.6	0.0000170
2142.6	0.0000075
2140.7	-0.0000137
2138.8	-0.0000200
2136.8	-0.0000101
2134.9	-0.0000023
2133.0	0.0000024
2131.1	0.0000126
2129.1	0.0000136
2127.2	-0.0000032
2125.3	-0.0000101
2123.3	0.0000047
2121.4	0.0000188
2119.5	0.0000240
2117.6	0.0000221
2115.6	0.0000089
2113.7	-0.0000062
2111.8	-0.0000114
2109.8	-0.0000076
2107.9	0.0000008
2106.0	0.0000066
2104.1	0.0000014
2102.1	-0.0000097
2100.2	-0.0000103
2098.3	0.0000078
2096.3	0.0000209
2094.4	0.0000236
2092.5	0.0000162
2090.6	-0.0000050
2088.6	-0.0000463
2086.7	-0.0000867
2084.8	-0.0000798
2082.8	-0.0000086
2080.9	0.0000918
2079.0	0.0001674
2077.1	0.0001910
2075.1	0.0001757
2073.2	0.0001519
2071.3	0.0001382
2069.3	0.0001317
2067.4	0.0001190
2065.5	0.0000986
2063.6	0.0000852
2061.6	0.0000817
2059.7	0.0000750
2057.8	0.0000621
2055.8	0.0000507
2053.9	0.0000457
2052.0	0.0000387
2050.1	0.0000187
2048.1	-0.0000030
2046.2	-0.0000085
2044.3	-0.0000040
2042.3	-0.0000028
2040.4	-0.0000037
2038.5	-0.0000035
2036.6	-0.0000056
2034.6	-0.0000086
2032.7	-0.0000063
2030.8	0.0000022
2028.8	0.0000156
2026.9	0.0000295
2025.0	0.0000415
2023.1	0.0000503
2021.1	0.0000451
2019.2	0.0000279
2017.3	0.0000188
2015.3	0.0000205
2013.4	0.0000163
2011.5	0.0000017
2009.6	-0.0000059
2007.6	0.0000006
2005.7	0.0000029
2003.8	-0.0000041
2001.8	-0.0000057
1999.9	-0.0000009
1998.0	0.0000009
1996.1	-0.0000011
1994.1	-0.0000023
1992.2	-0.0000011
1990.3	-0.0000012
1988.3	-0.0000022
1986.4	-0.0000028
1984.5	-0.0000064
1982.6	-0.0000076
1980.6	-0.0000026
1978.7	-0.0000027
1976.8	-0.0000117
1974.8	-0.0000216
1972.9	-0.0000289
1971.0	-0.0000293
1969.1	-0.0000226
1967.1	-0.0000175
1965.2	-0.0000131
1963.3	0.0000031
1961.4	0.0000324
1959.4	0.0000519
1957.5	0.0000390
1955.6	0.0000065
1953.6	-0.0000120
1951.7	-0.0000034
1949.8	0.0000103
1947.9	0.0000047
1945.9	-0.0000126
1944.0	-0.0000217
1942.1	-0.0000170
1940.1	-0.0000036
1938.2	0.0000076
1936.3	0.0000126
1934.4	0.0000181
1932.4	0.0000284
1930.5	0.0000400
1928.6	0.0000370
1926.6	0.0000110
1924.7	-0.0000176
1922.8	-0.0000277
1920.9	-0.0000257
1918.9	-0.0000258
1917.0	-0.0000265
1915.1	-0.0000200
1913.1	-0.0000060
1911.2	0.0000090
1909.3	0.0000141
1907.4	0.0000032
1905.4	-0.0000090
1903.5	-0.0000043
1901.6	0.0000091
1899.6	0.0000169
1897.7	0.0000197
1895.8	0.0000153
1893.9	0.0000017
1891.9	-0.0000076
1890.0	-0.0000079
1888.1	-0.0000113
1886.1	-0.0000172
1884.2	-0.0000139
1882.3	-0.0000035
1880.4	-0.0000006
1878.4	-0.0000084
1876.5	-0.0000163
1874.6	-0.0000148
1872.6	-0.0000067
1870.7	-0.0000043
1868.8	-0.0000077
1866.9	-0.0000088
1864.9	-0.0000087
1863.0	-0.0000054
1861.1	0.0000033
1859.1	0.0000071
1857.2	0.0000023
1855.3	-0.0000022
1853.4	-0.0000053
1851.4	-0.0000088
1849.5	-0.0000071
1847.6	0.0000005
1845.6	0.0000043
1843.7	0.0000020
1841.8	0.0000057
1839.9	0.0000158
1837.9	0.0000160
1836.0	0.0000054
1834.1	-0.0000029
1832.1	-0.0000050
1830.2	-0.0000064
1828.3	-0.0000176
1826.4	-0.0000329
1824.4	-0.0000264
1822.5	-0.0000018
1820.6	0.0000066
1818.6	-0.0000049
1816.7	-0.0000137
1814.8	-0.0000139
1812.9	-0.0000088
1810.9	-0.0000019
1809.0	-0.0000036
1807.1	-0.0000126
1805.1	-0.0000189
1803.2	-0.0000241
1801.3	-0.0000286
1799.4	-0.0000286
1797.4	-0.0000233
1795.5	-0.0000150
1793.6	-0.0000102
1791.6	-0.0000068
1789.7	0.0000003
1787.8	0.0000073
1785.9	0.0000081
1783.9	0.0000014
1782.0	-0.0000044
1780.1	-0.0000009
1778.1	0.0000067
1776.2	0.0000039
1774.3	-0.0000153
1772.4	-0.0000328
1770.4	-0.0000264
1768.5	-0.0000046
1766.6	0.0000093
1764.6	0.0000148
1762.7	0.0000168
1760.8	0.0000043
1758.9	-0.0000184
1756.9	-0.0000219
1755.0	-0.0000011
1753.1	0.0000163
1751.1	0.0000155
1749.2	0.0000106
1747.3	0.0000146
1745.4	0.0000195
1743.4	0.0000109
1741.5	-0.0000034
1739.6	-0.0000056
1737.6	0.0000041
1735.7	0.0000166
1733.8	0.0000281
1731.9	0.0000384
1729.9	0.0000516
1728.0	0.0000684
1726.1	0.0000835
1724.1	0.0000931
1722.2	0.0000946
1720.3	0.0000889
1718.4	0.0000825
1716.4	0.0000796
1714.5	0.0000811
1712.6	0.0000894
1710.6	0.0001051
1708.7	0.0001149
1706.8	0.0001068
1704.9	0.0000920
1702.9	0.0000865
1701.0	0.0000925
1699.1	0.0001014
1697.1	0.0001061
1695.2	0.0001071
1693.3	0.0001011
1691.4	0.0000855
1689.4	0.0000725
1687.5	0.0000747
1685.6	0.0000853
1683.6	0.0000869
1681.7	0.0000759
1679.8	0.0000659
1677.9	0.0000645
1675.9	0.0000696
1674.0	0.0000747
1672.1	0.0000697
1670.1	0.0000600
1668.2	0.0000621
1666.3	0.0000733
1664.4	0.0000777
1662.4	0.0000757
1660.5	0.0000780
1658.6	0.0000799
1656.6	0.0000734
1654.7	0.0000651
1652.8	0.0000685
1650.9	0.0000877
1648.9	0.0001035
1647.0	0.0000959
1645.1	0.0000736
1643.1	0.0000575
1641.2	0.0000585
1639.3	0.0000710
1637.4	0.0000724
1635.4	0.0000474
1633.5	0.0000122
1631.6	-0.0000043
1629.6	0.0000023
1627.7	0.0000164
1625.8	0.0000296
1623.9	0.0000412
1621.9	0.0000471
1620.0	0.0000510
1618.1	0.0000569
1616.1	0.0000550
1614.2	0.0000500
1612.3	0.0000583
1610.4	0.0000738
1608.4	0.0000816
1606.5	0.0000805
1604.6	0.0000805
1602.6	0.0000859
1600.7	0.0000879
1598.8	0.0000843
1596.9	0.0000854
1594.9	0.0000897
1593.0	0.0000860
1591.1	0.0000780
1589.1	0.0000770
1587.2	0.0000799
1585.3	0.0000767
1583.4	0.0000682
1581.4	0.0000602
1579.5	0.0000555
1577.6	0.0000569
1575.6	0.0000599
1573.7	0.0000525
1571.8	0.0000363
1569.9	0.0000289
1567.9	0.0000340
1566.0	0.0000397
1564.1	0.0000447
1562.1	0.0000525
1560.2	0.0000581
1558.3	0.0000530
1556.4	0.0000429
1554.4	0.0000478
1552.5	0.0000668
1550.6	0.0000798
1548.6	0.0000807
1546.7	0.0000762
1544.8	0.0000751
1542.9	0.0000818
1540.9	0.0000897
1539.0	0.0000963
1537.1	0.0001013
1535.1	0.0000934
1533.2	0.0000727
1531.3	0.0000554
1529.4	0.0000458
1527.4	0.0000354
1525.5	0.0000224
1523.6	0.0000098
1521.6	-0.0000011
1519.7	-0.0000003
1517.8	0.0000216
1515.9	0.0000579
1513.9	0.0001044
1512.0	0.0001567
1510.1	0.0001986
1508.1	0.0002157
1506.2	0.0002097
1504.3	0.0001915
1502.4	0.0001675
1500.4	0.0001374
1498.5	0.0001031
1496.6	0.0000690
1494.6	0.0000437
1492.7	0.0000306
1490.8	0.0000209
1488.9	0.0000069
1486.9	-0.0000039
1485.0	0.0000025
1483.1	0.0000246
1481.1	0.0000434
1479.2	0.0000489
1477.3	0.0000543
1475.4	0.0000701
1473.4	0.0000804
1471.5	0.0000757
1469.6	0.0000653
1467.6	0.0000524
1465.7	0.0000455
1463.8	0.0000597
1461.9	0.0000841
1459.9	0.0000982
1458.0	0.0001005
1456.1	0.0001041
1454.1	0.0001118
1452.2	0.0001181
1450.3	0.0001248
1448.4	0.0001351
1446.4	0.0001442
1444.5	0.0001467
1442.6	0.0001399
1440.6	0.0001287
1438.7	0.0001239
1436.8	0.0001252
1434.9	0.0001311
1432.9	0.0001514
1431.0	0.0001789
1429.1	0.0001912
1427.1	0.0001945
1425.2	0.0002084
1423.3	0.0002215
1421.4	0.0002201
1419.4	0.0002210
1417.5	0.0002376
1415.6	0.0002601
1413.6	0.0002813
1411.7	0.0003076
1409.8	0.0003385
1407.9	0.0003428
1405.9	0.0003001
1404.0	0.0002417
1402.1	0.0002058
1400.1	0.0001934
1398.2	0.0001848
1396.3	0.0001623
1394.4	0.0001301
1392.4	0.0001063
1390.5	0.0000972
1388.6	0.0000980
1386.6	0.0001028
1384.7	0.0001044
1382.8	0.0000986
1380.9	0.0000886
1378.9	0.0000801
1377.0	0.0000689
1375.1	0.0000517
1373.1	0.0000403
1371.2	0.0000408
1369.3	0.0000407
1367.4	0.0000369
1365.4	0.0000413
1363.5	0.0000502
1361.6	0.0000509
1359.6	0.0000425
1357.7	0.0000286
1355.8	0.0000108
1353.9	-0.0000077
1351.9	-0.0000172
1350.0	-0.0000096
1348.1	0.0000092
1346.1	0.0000249
1344.2	0.0000274
1342.3	0.0000176
1340.4	0.0000020
1338.4	-0.0000132
1336.5	-0.0000221
1334.6	-0.0000189
1332.6	-0.0000048
1330.7	0.0000028
1328.8	-0.0000070
1326.9	-0.0000130
1324.9	-0.0000015
1323.0	0.0000082
1321.1	0.0000100
1319.1	0.0000173
1317.2	0.0000262
1315.3	0.0000257
1313.4	0.0000261
1311.4	0.0000371
1309.5	0.0000392
1307.6	0.0000227
1305.6	0.0000162
1303.7	0.0000271
1301.8	0.0000220
1299.9	-0.0000007
1297.9	-0.0000066
1296.0	0.0000101
1294.1	0.0000263
1292.1	0.0000304
1290.2	0.0000290
1288.3	0.0000339
1286.4	0.0000444
1284.4	0.0000387
1282.5	0.0000139
1280.6	-0.0000014
1278.6	-0.0000076
1276.7	-0.0000238
1274.8	-0.0000283
1272.9	0.0000004
1270.9	0.0000317
1269.0	0.0000347
1267.1	0.0000296
1265.1	0.0000435
1263.2	0.0000622
1261.3	0.0000654
1259.4	0.0000550
1257.4	0.0000435
1255.5	0.0000375
1253.6	0.0000253
1251.6	-0.0000014
1249.7	-0.0000288
1247.8	-0.0000420
1245.9	-0.0000401
1243.9	-0.0000257
1242.0	0.0000091
1240.1	0.0000514
1238.1	0.0000720
1236.2	0.0000740
1234.3	0.0000694
1232.4	0.0000564
1230.4	0.0000375
1228.5	0.0000222
1226.6	0.0000204
1224.6	0.0000178
1222.7	-0.0000032
1220.8	-0.0000207
1218.9	-0.0000085
1216.9	0.0000194
1215.0	0.0000342
1213.1	0.0000292
1211.1	0.0000131
1209.2	-0.0000022
1207.3	-0.0000006
1205.4	0.0000167
1203.4	0.0000264
1201.5	0.0000209
1199.6	0.0000154
1197.6	0.0000062
1195.7	0.0000132
1193.8	0.0000282
1191.9	0.0000271
1189.9	0.0000188
1188.0	0.0000178
1186.1	0.0000105
1184.1	-0.0000026
1182.2	-0.0000026
1180.3	0.0000180
1178.4	0.0000539
1176.4	0.0000821
1174.5	0.0000780
1172.6	0.0000590
1170.6	0.0000610
1168.7	0.0000724
1166.8	0.0000582
1164.9	0.0000312
1162.9	0.0000295
1161.0	0.0000447
1159.1	0.0000418
1157.1	0.0000228
1155.2	0.0000144
1153.3	0.0000185
1151.4	0.0000150
1149.4	-0.0000010
1147.5	-0.0000159
1145.6	-0.0000150
1143.6	0.0000123
1141.7	0.0000458
1139.8	0.0000478
1137.9	0.0000259
1135.9	0.0000080
1134.0	0.0000068
1132.1	0.0000220
1130.1	0.0000201
1128.2	-0.0000091
1126.3	-0.0000171
1124.4	0.0000056
1122.4	0.0000169
1120.5	0.0000159
1118.6	0.0000346
1116.6	0.0000663
1114.7	0.0000784
1112.8	0.0000560
1110.9	0.0000145
1108.9	-0.0000170
1107.0	-0.0000309
1105.1	-0.0000244
1103.1	0.0000085
1101.2	0.0000370
1099.3	0.0000275
1097.4	0.0000035
1095.4	0.0000069
1093.5	0.0000246
1091.6	0.0000198
1089.6	-0.0000010
1087.7	-0.0000143
1085.8	-0.0000151
1083.9	-0.0000033
1081.9	0.0000061
1080.0	-0.0000010
1078.1	-0.0000085
1076.1	-0.0000001
1074.2	0.0000146
1072.3	0.0000224
1070.4	0.0000251
1068.4	0.0000218
1066.5	0.0000100
1064.6	0.0000110
1062.6	0.0000200
1060.7	0.0000054
1058.8	-0.0000169
1056.9	-0.0000062
1054.9	0.0000334
1053.0	0.0000727
1051.1	0.0000967
1049.1	0.0001035
1047.2	0.0000887
1045.3	0.0000601
1043.4	0.0000388
1041.4	0.0000286
1039.5	0.0000218
1037.6	0.0000153
1035.6	0.0000110
1033.7	0.0000106
1031.8	0.0000014
1029.9	-0.0000145
1027.9	-0.0000109
1026.0	0.0000202
1024.1	0.0000474
1022.1	0.0000477
1020.2	0.0000439
1018.3	0.0000478
1016.4	0.0000496
1014.4	0.0000407
1012.5	0.0000070
1010.6	-0.0000289
1008.6	-0.0000355
1006.7	-0.0000352
1004.8	-0.0000489
1002.9	-0.0000570
1000.9	-0.0000491
999.0	-0.0000342
997.1	-0.0000254
995.1	-0.0000206
993.2	-0.0000029
991.3	0.0000232
989.4	0.0000456
987.4	0.0000476
985.5	0.0000225
983.6	0.0000128
981.6	0.0000147
979.7	-0.0000175
977.8	-0.0000497
975.9	-0.0000211
973.9	0.0000451
972.0	0.0000716
970.1	0.0000375
968.1	0.0000004
966.2	0.0000112
964.3	0.0000387
962.4	0.0000323
960.4	0.0000305
958.5	0.0000609
956.6	0.0000555
954.6	-0.0000002
952.7	-0.0000366
950.8	-0.0000407
948.9	-0.0000374
946.9	-0.0000269
945.0	-0.0000089
943.1	0.0000124
941.1	0.0000206
939.2	0.0000048
937.3	-0.0000184
935.4	-0.0000308
933.4	-0.0000178
931.5	0.0000223
929.6	0.0000575
927.6	0.0000540
925.7	0.0000090
923.8	-0.0000421
921.9	-0.0000451
919.9	-0.0000046
918.0	0.0000185
916.1	-0.0000039
914.1	-0.0000293
912.2	-0.0000019
910.3	0.0000346
908.4	0.0000106
906.4	-0.0000228
904.5	-0.0000072
902.6	0.0000008
900.6	-0.0000180
898.7	0.0000107
896.8	0.0000617
894.9	0.0000420
892.9	-0.0000381
891.0	-0.0000984
889.1	-0.0000861
887.1	-0.0000354
885.2	-0.0000036
883.3	0.0000013
881.4	0.0000098
879.4	0.0000761
877.5	0.0001477
875.6	0.0001558
873.6	0.0001835
871.7	0.0002014
869.8	0.0000784
867.9	-0.0000573
865.9	-0.0000509
864.0	-0.0000027
862.1	0.0000285
860.1	0.0000475
858.2	-0.0000059
856.3	-0.0000498
854.4	0.0000008
852.4	0.0000494
850.5	0.0000288
848.6	-0.0000118
