3997.9	-0.0004789
3996.0	-0.0004497
3994.1	-0.0004430
3992.1	-0.0004416
3990.2	-0.0004274
3988.3	-0.0004038
3986.3	-0.0003762
3984.4	-0.0003552
3982.5	-0.0003637
3980.6	-0.0003796
3978.6	-0.0003601
3976.7	-0.0003245
3974.8	-0.0003060
3972.8	-0.0002894
3970.9	-0.0002678
3969.0	-0.0002657
3967.1	-0.0002778
3965.1	-0.0002701
3963.2	-0.0002476
3961.3	-0.0002475
3959.3	-0.0002729
3957.4	-0.0002847
3955.5	-0.0002777
3953.6	-0.0002829
3951.6	-0.0002824
3949.7	-0.0002561
3947.8	-0.0002408
3945.8	-0.0002416
3943.9	-0.0002289
3942.0	-0.0002156
3940.1	-0.0002254
3938.1	-0.0002460
3936.2	-0.0002531
3934.3	-0.0002385
3932.3	-0.0002111
3930.4	-0.0001876
3928.5	-0.0001762
3926.6	-0.0001765
3924.6	-0.0001745
3922.7	-0.0001552
3920.8	-0.0001342
3918.8	-0.0001256
3916.9	-0.0001221
3915.0	-0.0001319
3913.1	-0.0001486
3911.1	-0.0001458
3909.2	-0.0001372
3907.3	-0.0001249
3905.3	-0.0000782
3903.4	-0.0000173
3901.5	0.0000035
3899.6	-0.0000341
3897.6	-0.0000890
3895.7	-0.0000907
3893.8	-0.0000328
3891.8	0.0000036
3889.9	-0.0000116
3888.0	-0.0000129
3886.1	-0.0000073
3884.1	-0.0000311
3882.2	-0.0000447
3880.3	-0.0000494
3878.3	-0.0000500
3876.4	-0.0000226
3874.5	0.0000138
3872.6	0.0000474
3870.6	0.0000487
3868.7	-0.0000010
3866.8	-0.0000394
3864.8	-0.0000413
3862.9	-0.0000289
3861.0	-0.0000124
3859.1	0.0000203
3857.1	0.0001318
3855.2	0.0002683
3853.3	0.0002405
3851.3	0.0000759
3849.4	-0.0000340
3847.5	-0.0000470
3845.6	-0.0000198
3843.6	0.0000101
3841.7	0.0000575
3839.8	0.0001256
3837.8	0.0001409
3835.9	0.0000811
3834.0	0.0000176
3832.1	-0.0000195
3830.1	-0.0000396
3828.2	-0.0000490
3826.3	-0.0000494
3824.3	0.0000018
3822.4	0.0000718
3820.5	0.0000780
3818.6	0.0000689
3816.6	0.0000366
3814.7	-0.0000679
3812.8	-0.0001393
3810.8	-0.0001141
3808.9	-0.0000646
3807.0	-0.0000457
3805.1	-0.0000108
3803.1	0.0000526
3801.2	0.0000468
3799.3	-0.0000239
3797.3	-0.0000718
3795.4	-0.0000928
3793.5	-0.0001005
3791.6	-0.0001062
3789.6	-0.0001322
3787.7	-0.0001523
3785.8	-0.0001442
3783.8	-0.0001309
3781.9	-0.0001127
3780.0	-0.0000975
3778.1	-0.0001155
3776.1	-0.0001458
3774.2	-0.0001377
3772.3	-0.0000927
3770.3	-0.0000763
3768.4	-0.0001060
3766.5	-0.0001315
3764.6	-0.0001340
3762.6	-0.0001094
3760.7	-0.0000776
3758.8	-0.0000823
3756.8	-0.0000875
3754.9	-0.0000238
3753.0	0.0000739
3751.1	0.0000939
3749.1	0.0000427
3747.2	0.0000377
3745.3	0.0000378
3743.3	-0.0000628
3741.4	-0.0001483
3739.5	-0.0001077
3737.6	-0.0000370
3735.6	-0.0000162
3733.7	-0.0000295
3731.8	-0.0000810
3729.8	-0.0001508
3727.9	-0.0001837
3726.0	-0.0001878
3724.1	-0.0001913
3722.1	-0.0001892
3720.2	-0.0001961
3718.3	-0.0002198
3716.3	-0.0002207
3714.4	-0.0001714
3712.5	-0.0001265
3710.6	-0.0001520
3708.6	-0.0002153
3706.7	-0.0002415
3704.8	-0.0002238
3702.8	-0.0002167
3700.9	-0.0002419
3699.0	-0.0002702
3697.1	-0.0002795
3695.1	-0.0002575
3693.2	-0.0001931
3691.3	-0.0001163
3689.3	-0.0001077
3687.4	-0.0001856
3685.5	-0.0002571
3683.6	-0.0002796
3681.6	-0.0002866
3679.7	-0.0002491
3677.8	-0.0001626
3675.8	-0.0001334
3673.9	-0.0001600
3672.0	-0.0001623
3670.1	-0.0002037
3668.1	-0.0003073
3666.2	-0.0003682
3664.3	-0.0003619
3662.3	-0.0003404
3660.4	-0.0003153
3658.5	-0.0002779
3656.6	-0.0002586
3654.6	-0.0002583
3652.7	-0.0002227
3650.8	-0.0001707
3648.8	-0.0001777
3646.9	-0.0002439
3645.0	-0.0003050
3643.1	-0.0003296
3641.1	-0.0003394
3639.2	-0.0003524
3637.3	-0.0003502
3635.3	-0.0003208
3633.4	-0.0002698
3631.5	-0.0001989
3629.6	-0.0001673
3627.6	-0.0002316
3625.7	-0.0003235
3623.8	-0.0003582
3621.8	-0.0003267
3619.9	-0.0002831
3618.0	-0.0002894
3616.1	-0.0003177
3614.1	-0.0003231
3612.2	-0.0003121
3610.3	-0.0002972
3608.3	-0.0003075
3606.4	-0.0003468
3604.5	-0.0003656
3602.6	-0.0003460
3600.6	-0.0003152
3598.7	-0.0002930
3596.8	-0.0002761
3594.8	-0.0002694
3592.9	-0.0002873
3591.0	-0.0003003
3589.1	-0.0002845
3587.1	-0.0002804
3585.2	-0.0003184
3583.3	-0.0003722
3581.3	-0.0004068
3579.4	-0.0004127
3577.5	-0.0004029
3575.6	-0.0003981
3573.6	-0.0003927
3571.7	-0.0003644
3569.8	-0.0003393
3567.8	-0.0003620
3565.9	-0.0004063
3564.0	-0.0004212
3562.1	-0.0004253
3560.1	-0.0004446
3558.2	-0.0004412
3556.3	-0.0004031
3554.3	-0.0003766
3552.4	-0.0003825
3550.5	-0.0003963
3548.6	-0.0003999
3546.6	-0.0004036
3544.7	-0.0004067
3542.8	-0.0004049
3540.8	-0.0004152
3538.9	-0.0004291
3537.0	-0.0004256
3535.1	-0.0004181
3533.1	-0.0004117
3531.2	-0.0003959
3529.3	-0.0003828
3527.3	-0.0003673
3525.4	-0.0003456
3523.5	-0.0003506
3521.6	-0.0003665
3519.6	-0.0003450
3517.7	-0.0003000
3515.8	-0.0002717
3513.8	-0.0002646
3511.9	-0.0002602
3510.0	-0.0002690
3508.1	-0.0002997
3506.1	-0.0003086
3504.2	-0.0002745
3502.3	-0.0002454
3500.3	-0.0002541
3498.4	-0.0002771
3496.5	-0.0002887
3494.6	-0.0002940
3492.6	-0.0003053
3490.7	-0.0003246
3488.8	-0.0003350
3486.8	-0.0003163
3484.9	-0.0002818
3483.0	-0.0002508
3481.1	-0.0002105
3479.1	-0.0001610
3477.2	-0.0001311
3475.3	-0.0001070
3473.3	-0.0000535
3471.4	0.0000024
3469.5	0.0000177
3467.6	0.0000186
3465.6	0.0000473
3463.7	0.0000787
3461.8	0.0000739
3459.8	0.0000447
3457.9	0.0000201
3456.0	0.0000113
3454.1	0.0000061
3452.1	-0.0000020
3450.2	-0.0000055
3448.3	-0.0000127
3446.3	-0.0000245
3444.4	-0.0000323
3442.5	-0.0000513
3440.6	-0.0000899
3438.6	-0.0001153
3436.7	-0.0001031
3434.8	-0.0000746
3432.8	-0.0000572
3430.9	-0.0000622
3429.0	-0.0000772
3427.1	-0.0000817
3425.1	-0.0000918
3423.2	-0.0001115
3421.3	-0.0001067
3419.3	-0.0000885
3417.4	-0.0000965
3415.5	-0.0001201
3413.6	-0.0001370
3411.6	-0.0001495
3409.7	-0.0001549
3407.8	-0.0001354
3405.8	-0.0000917
3403.9	-0.0000552
3402.0	-0.0000509
3400.1	-0.0000758
3398.1	-0.0001036
3396.2	-0.0001024
3394.3	-0.0000702
3392.3	-0.0000347
3390.4	-0.0000102
3388.5	0.0000090
3386.6	0.0000163
3384.6	0.0000115
3382.7	0.0000081
3380.8	0.0000064
3378.8	0.0000097
3376.9	0.0000281
3375.0	0.0000580
3373.1	0.0000917
3371.1	0.0001260
3369.2	0.0001423
3367.3	0.0001289
3365.3	0.0001183
3363.4	0.0001260
3361.5	0.0001273
3359.6	0.0001126
3357.6	0.0000825
3355.7	0.0000587
3353.8	0.0000823
3351.8	0.0001416
3349.9	0.0001747
3348.0	0.0001621
3346.1	0.0001334
3344.1	0.0001110
3342.2	0.0001064
3340.3	0.0001135
3338.3	0.0001145
3336.4	0.0001070
3334.5	0.0000872
3332.6	0.0000533
3330.6	0.0000207
3328.7	0.0000104
3326.8	0.0000289
3324.8	0.0000509
3322.9	0.0000559
3321.0	0.0000531
3319.1	0.0000427
3317.1	0.0000394
3315.2	0.0000710
3313.3	0.0000925
3311.3	0.0000579
3309.4	0.0000176
3307.5	0.0000132
3305.6	0.0000148
3303.6	-0.0000058
3301.7	-0.0000436
3299.8	-0.0000665
3297.8	-0.0000568
3295.9	-0.0000416
3294.0	-0.0000345
3292.1	-0.0000270
3290.1	-0.0000311
3288.2	-0.0000523
3286.3	-0.0000808
3284.3	-0.0001097
3282.4	-0.0001427
3280.5	-0.0001686
3278.6	-0.0001512
3276.6	-0.0001149
3274.7	-0.0001102
3272.8	-0.0001148
3270.8	-0.0001098
3268.9	-0.0001148
3267.0	-0.0001228
3265.1	-0.0001264
3263.1	-0.0001414
3261.2	-0.0001540
3259.3	-0.0001417
3257.3	-0.0001336
3255.4	-0.0001546
3253.5	-0.0001842
3251.6	-0.0001999
3249.6	-0.0002037
3247.7	-0.0002143
3245.8	-0.0002332
3243.8	-0.0002470
3241.9	-0.0002547
3240.0	-0.0002577
3238.1	-0.0002589
3236.1	-0.0002672
3234.2	-0.0002773
3232.3	-0.0002755
3230.3	-0.0002700
3228.4	-0.0002688
3226.5	-0.0002616
3224.6	-0.0002530
3222.6	-0.0002514
3220.7	-0.0002479
3218.8	-0.0002487
3216.8	-0.0002639
3214.9	-0.0002739
3213.0	-0.0002640
3211.1	-0.0002495
3209.1	-0.0002435
3207.2	-0.0002527
3205.3	-0.0002636
3203.3	-0.0002519
3201.4	-0.0002397
3199.5	-0.0002512
3197.6	-0.0002631
3195.6	-0.0002642
3193.7	-0.0002684
3191.8	-0.0002782
3189.8	-0.0002843
3187.9	-0.0002867
3186.0	-0.0003070
3184.1	-0.0003553
3182.1	-0.0003959
3180.2	-0.0003978
3178.3	-0.0003858
3176.3	-0.0003939
3174.4	-0.0004180
3172.5	-0.0004380
3170.6	-0.0004464
3168.6	-0.0004416
3166.7	-0.0004291
3164.8	-0.0004206
3162.8	-0.0004054
3160.9	-0.0003794
3159.0	-0.0003679
3157.1	-0.0003696
3155.1	-0.0003567
3153.2	-0.0003316
3151.3	-0.0003144
3149.3	-0.0003085
3147.4	-0.0002967
3145.5	-0.0002701
3143.6	-0.0002452
3141.6	-0.0002311
3139.7	-0.0002210
3137.8	-0.0002057
3135.8	-0.0001764
3133.9	-0.0001445
3132.0	-0.0001171
3130.1	-0.0000796
3128.1	-0.0000308
3126.2	0.0000211
3124.3	0.0000741
3122.3	0.0001260
3120.4	0.0001729
3118.5	0.0002172
3116.6	0.0002614
3114.6	0.0003078
3112.7	0.0003684
3110.8	0.0004339
3108.8	0.0004772
3106.9	0.0004987
3105.0	0.0005112
3103.1	0.0005220
3101.1	0.0005342
3099.2	0.0005494
3097.3	0.0005672
3095.3	0.0005777
3093.4	0.0005823
3091.5	0.0005910
3089.6	0.0005919
3087.6	0.0005740
3085.7	0.0005547
3083.8	0.0005516
3081.8	0.0005530
3079.9	0.0005462
3078.0	0.0005379
3076.1	0.0005253
3074.1	0.0005043
3072.2	0.0005038
3070.3	0.0005370
3068.3	0.0005734
3066.4	0.0006004
3064.5	0.0006345
3062.6	0.0006947
3060.6	0.0007859
3058.7	0.0008864
3056.8	0.0009854
3054.8	0.0011009
3052.9	0.0012364
3051.0	0.0013841
3049.1	0.0015466
3047.1	0.0017173
3045.2	0.0018871
3043.3	0.0020562
3041.3	0.0022116
3039.4	0.0023397
3037.5	0.0024445
3035.6	0.0025250
3033.6	0.0025749
3031.7	0.0026010
3029.8	0.0026167
3027.8	0.0026118
3025.9	0.0025591
3024.0	0.0024568
3022.1	0.0023425
3020.1	0.0022656
3018.2	0.0022272
3016.3	0.0021942
3014.3	0.0021716
3012.4	0.0021786
3010.5	0.0022150
3008.6	0.0022869
3006.6	0.0023930
3004.7	0.0025154
3002.8	0.0026389
3000.8	0.0027525
2998.9	0.0028441
2997.0	0.0029038
2995.1	0.0029334
2993.1	0.0029440
2991.2	0.0029412
2989.3	0.0029232
2987.3	0.0028871
2985.4	0.0028414
2983.5	0.0027953
2981.6	0.0027315
2979.6	0.0026328
2977.7	0.0025119
2975.8	0.0023826
2973.8	0.0022456
2971.9	0.0021049
2970.0	0.0019731
2968.1	0.0018646
2966.1	0.0017909
2964.2	0.0017578
2962.3	0.0017605
2960.3	0.0017885
2958.4	0.0018312
2956.5	0.0018992
2954.6	0.0020189
2952.6	0.0021782
2950.7	0.0023443
2948.8	0.0025077
2946.8	0.0026678
2944.9	0.0028406
2943.0	0.0030394
2941.1	0.0032288
2939.1	0.0033782
2937.2	0.0035168
2935.3	0.0036691
2933.3	0.0038137
2931.4	0.0039353
2929.5	0.0040416
2927.6	0.0041273
2925.6	0.0041627
2923.7	0.0041273
2921.8	0.0040366
2919.8	0.0039116
2917.9	0.0037580
2916.0	0.0035888
2914.1	0.0034110
2912.1	0.0032074
2910.2	0.0029787
2908.3	0.0027514
2906.3	0.0025376
2904.4	0.0023286
2902.5	0.0021122
2900.6	0.0018923
2898.6	0.0016945
2896.7	0.0015298
2894.8	0.0013733
2892.8	0.0012082
2890.9	0.0010593
2889.0	0.0009479
2887.1	0.0008464
2885.1	0.0007253
2883.2	0.0006029
2881.3	0.0005093
2879.3	0.0004494
2877.4	0.0004132
2875.5	0.0003970
2873.6	0.0004022
2871.6	0.0004201
2869.7	0.0004417
2867.8	0.0004667
2865.8	0.0004931
2863.9	0.0005250
2862.0	0.0005710
2860.1	0.0006155
2858.1	0.0006374
2856.2	0.0006430
2854.3	0.0006384
2852.3	0.0006059
2850.4	0.0005370
2848.5	0.0004543
2846.6	0.0003808
2844.6	0.0003025
2842.7	0.0002056
2840.8	0.0001038
2838.8	0.0000055
2836.9	-0.0000907
2835.0	-0.0001721
2833.1	-0.0002228
2831.1	-0.0002495
2829.2	-0.0002647
2827.3	-0.0002649
2825.3	-0.0002405
2823.4	-0.0001941
2821.5	-0.0001348
2819.6	-0.0000608
2817.6	0.0000344
2815.7	0.0001395
2813.8	0.0002406
2811.8	0.0003462
2809.9	0.0004504
2808.0	0.0005258
2806.1	0.0005733
2804.1	0.0006016
2802.2	0.0006118
2800.3	0.0006162
2798.3	0.0006236
2796.4	0.0006232
2794.5	0.0005945
2792.6	0.0005368
2790.6	0.0004679
2788.7	0.0003929
2786.8	0.0003159
2784.8	0.0002466
2782.9	0.0001829
2781.0	0.0001204
2779.1	0.0000600
2777.1	0.0000018
2775.2	-0.0000467
2773.3	-0.0000793
2771.3	-0.0000999
2769.4	-0.0001089
2767.5	-0.0001065
2765.6	-0.0000938
2763.6	-0.0000675
2761.7	-0.0000241
2759.8	0.0000370
2757.8	0.0001070
2755.9	0.0001829
2754.0	0.0002623
2752.1	0.0003376
2750.1	0.0004228
2748.2	0.0005247
2746.3	0.0006219
2744.3	0.0006946
2742.4	0.0007346
2740.5	0.0007542
2738.6	0.0007784
2736.6	0.0008081
2734.7	0.0008193
2732.8	0.0008098
2730.8	0.0008088
2728.9	0.0008308
2727.0	0.0008682
2725.1	0.0009114
2723.1	0.0009533
2721.2	0.0010047
2719.3	0.0010931
2717.3	0.0012275
2715.4	0.0013927
2713.5	0.0015710
2711.6	0.0017525
2709.6	0.0019221
2707.7	0.0020549
2705.8	0.0021486
2703.8	0.0022261
2701.9	0.0023033
2700.0	0.0023908
2698.1	0.0025014
2696.1	0.0026281
2694.2	0.0027336
2692.3	0.0027918
2690.3	0.0028123
2688.4	0.0027873
2686.5	0.0026967
2684.6	0.0025635
2682.6	0.0024202
2680.7	0.0022663
2678.8	0.0021009
2676.8	0.0019497
2674.9	0.0018305
2673.0	0.0017281
2671.1	0.0016310
2669.1	0.0015472
2667.2	0.0014859
2665.3	0.0014461
2663.3	0.0014153
2661.4	0.0014048
2659.5	0.0014413
2657.6	0.0015235
2655.6	0.0016457
2653.7	0.0018144
2651.8	0.0020391
2649.8	0.0023257
2647.9	0.0026642
2646.0	0.0030252
2644.1	0.0033600
2642.1	0.0036117
2640.2	0.0037137
2638.3	0.0036079
2636.3	0.0033069
2634.4	0.0028934
2632.5	0.0024580
2630.6	0.0020563
2628.6	0.0017155
2626.7	0.0014500
2624.8	0.0012460
2622.8	0.0010763
2620.9	0.0009311
2619.0	0.0008108
2617.1	0.0007109
2615.1	0.0006294
2613.2	0.0005810
2611.3	0.0005674
2609.3	0.0005623
2607.4	0.0005558
2605.5	0.0005622
2603.6	0.0005889
2601.6	0.0006271
2599.7	0.0006752
2597.8	0.0007400
2595.8	0.0008092
2593.9	0.0008782
2592.0	0.0009671
2590.1	0.0010970
2588.1	0.0012688
2586.2	0.0014637
2584.3	0.0016700
2582.3	0.0018803
2580.4	0.0020810
2578.5	0.0022564
2576.6	0.0023788
2574.6	0.0024189
2572.7	0.0023791
2570.8	0.0022879
2568.8	0.0021610
2566.9	0.0019999
2565.0	0.0018115
2563.1	0.0016101
2561.1	0.0014206
2559.2	0.0012601
2557.3	0.0011211
2555.3	0.0009944
2553.4	0.0008820
2551.5	0.0007847
2549.6	0.0006972
2547.6	0.0006181
2545.7	0.0005489
2543.8	0.0004923
2541.8	0.0004495
2539.9	0.0004072
2538.0	0.0003621
2536.1	0.0003271
2534.1	0.0002965
2532.2	0.0002603
2530.3	0.0002328
2528.3	0.0002183
2526.4	0.0001927
2524.5	0.0001532
2522.6	0.0001187
2520.6	0.0000937
2518.7	0.0000773
2516.8	0.0000728
2514.8	0.0000715
2512.9	0.0000545
2511.0	0.0000205
2509.1	-0.0000120
2507.1	-0.0000288
2505.2	-0.0000266
2503.3	-0.0000247
2501.3	-0.0000459
2499.4	-0.0000754
2497.5	-0.0000867
2495.6	-0.0000887
2493.6	-0.0000979
2491.7	-0.0001094
2489.8	-0.0001211
2487.8	-0.0001339
2485.9	-0.0001444
2484.0	-0.0001491
2482.1	-0.0001409
2480.1	-0.0001228
2478.2	-0.0001116
2476.3	-0.0001176
2474.3	-0.0001359
2472.4	-0.0001618
2470.5	-0.0001905
2468.6	-0.0002019
2466.6	-0.0001901
2464.7	-0.0001750
2462.8	-0.0001714
2460.8	-0.0001744
2458.9	-0.0001790
2457.0	-0.0001898
2455.1	-0.0002043
2453.1	-0.0002189
2451.2	-0.0002321
2449.3	-0.0002391
2447.3	-0.0002394
2445.4	-0.0002331
2443.5	-0.0002307
2441.6	-0.0002405
2439.6	-0.0002465
2437.7	-0.0002405
2435.8	-0.0002323
2433.8	-0.0002224
2431.9	-0.0002095
2430.0	-0.0002038
2428.1	-0.0002080
2426.1	-0.0002172
2424.2	-0.0002319
2422.3	-0.0002448
2420.3	-0.0002512
2418.4	-0.0002601
2416.5	-0.0002706
2414.6	-0.0002769
2412.6	-0.0002797
2410.7	-0.0002802
2408.8	-0.0002853
2406.8	-0.0002964
2404.9	-0.0003019
2403.0	-0.0002977
2401.1	-0.0002831
2399.1	-0.0002592
2397.2	-0.0002425
2395.3	-0.0002409
2393.3	-0.0002387
2391.4	-0.0002282
2389.5	-0.0002204
2387.6	-0.0002186
2385.6	-0.0002061
2383.7	-0.0001754
2381.8	-0.0001474
2379.8	-0.0001382
2377.9	-0.0001368
2376.0	-0.0001373
2374.1	-0.0001434
2372.1	-0.0001451
2370.2	-0.0001362
2368.3	-0.0001260
2366.3	-0.0001200
2364.4	-0.0001114
2362.5	-0.0000892
2360.6	-0.0000658
2358.6	-0.0000688
2356.7	-0.0000909
2354.8	-0.0001040
2352.8	-0.0001010
2350.9	-0.0000971
2349.0	-0.0000937
2347.1	-0.0000555
2345.1	0.0000313
2343.2	0.0001170
2341.3	0.0001430
2339.3	0.0001036
2337.4	0.0000486
2335.5	0.0000253
2333.6	0.0000323
2331.6	0.0000402
2329.7	0.0000419
2327.8	0.0000569
2325.8	0.0000881
2323.9	0.0001106
2322.0	0.0001152
2320.1	0.0001166
2318.1	0.0001197
2316.2	0.0001180
2314.3	0.0001242
2312.3	0.0001541
2310.4	0.0001892
2308.5	0.0002084
2306.6	0.0002166
2304.6	0.0002203
2302.7	0.0002258
2300.8	0.0002327
2298.8	0.0002239
2296.9	0.0001995
2295.0	0.0001843
2293.1	0.0001781
2291.1	0.0001616
2289.2	0.0001485
2287.3	0.0001570
2285.3	0.0001589
2283.4	0.0001380
2281.5	0.0001290
2279.6	0.0001469
2277.6	0.0001686
2275.7	0.0001867
2273.8	0.0002139
2271.8	0.0002503
2269.9	0.0002832
2268.0	0.0003166
2266.1	0.0003657
2264.1	0.0004225
2262.2	0.0004629
2260.3	0.0004712
2258.3	0.0004472
2256.4	0.0004123
2254.5	0.0003840
2252.6	0.0003518
2250.6	0.0003094
2248.7	0.0002705
2246.8	0.0002456
2244.8	0.0002261
2242.9	0.0001964
2241.0	0.0001679
2239.1	0.0001599
2237.1	0.0001593
2235.2	0.0001556
2233.3	0.0001614
2231.3	0.0001731
2229.4	0.0001722
2227.5	0.0001578
2225.6	0.0001491
2223.6	0.0001645
2221.7	0.0001919
2219.8	0.0002061
2217.8	0.0002051
2215.9	0.0001970
2214.0	0.0001901
2212.1	0.0001952
2210.1	0.0002117
2208.2	0.0002347
2206.3	0.0002603
2204.3	0.0002809
2202.4	0.0002961
2200.5	0.0003086
2198.6	0.0003150
2196.6	0.0003147
2194.7	0.0003092
2192.8	0.0003096
2190.8	0.0003317
2188.9	0.0003613
2187.0	0.0003776
2185.1	0.0003831
2183.1	0.0003839
2181.2	0.0003796
2179.3	0.0003737
2177.3	0.0003687
2175.4	0.0003600
2173.5	0.0003470
2171.6	0.0003377
2169.6	0.0003355
2167.7	0.0003333
2165.8	0.0003254
2163.8	0.0003218
2161.9	0.0003300
2160.0	0.0003401
2158.1	0.0003470
2156.1	0.0003560
2154.2	0.0003662
2152.3	0.0003692
2150.3	0.0003679
2148.4	0.0003666
2146.5	0.0003629
2144.6	0.0003657
2142.6	0.0003879
2140.7	0.0004299
2138.8	0.0004865
2136.8	0.0005394
2134.9	0.0005608
2133.0	0.0005454
2131.1	0.0005004
2129.1	0.0004325
2127.2	0.0003650
2125.3	0.0003135
2123.3	0.0002720
2121.4	0.0002447
2119.5	0.0002405
2117.6	0.0002378
2115.6	0.0002122
2113.7	0.0001815
2111.8	0.0001733
2109.8	0.0001792
2107.9	0.0001763
2106.0	0.0001590
2104.1	0.0001386
2102.1	0.0001216
2100.2	0.0001084
2098.3	0.0001005
2096.3	0.0000907
2094.4	0.0000780
2092.5	0.0000708
2090.6	0.0000623
2088.6	0.0000466
2086.7	0.0000206
2084.8	-0.0000203
2082.8	-0.0000628
2080.9	-0.0000878
2079.0	-0.0000938
2077.1	-0.0001019
2075.1	-0.0001252
2073.2	-0.0001450
2071.3	-0.0001475
2069.3	-0.0001378
2067.4	-0.0001198
2065.5	-0.0001008
2063.6	-0.0000894
2061.6	-0.0000887
2059.7	-0.0000975
2057.8	-0.0000956
2055.8	-0.0000711
2053.9	-0.0000534
2052.0	-0.0000625
2050.1	-0.0000773
2048.1	-0.0000789
2046.2	-0.0000755
2044.3	-0.0000872
2042.3	-0.0001156
2040.4	-0.0001410
2038.5	-0.0001519
2036.6	-0.0001603
2034.6	-0.0001788
2032.7	-0.0002051
2030.8	-0.0002381
2028.8	-0.0002764
2026.9	-0.0003060
2025.0	-0.0003213
2023.1	-0.0003332
2021.1	-0.0003440
2019.2	-0.0003502
2017.3	-0.0003634
2015.3	-0.0003896
2013.4	-0.0004138
2011.5	-0.0004257
2009.6	-0.0004331
2007.6	-0.0004421
2005.7	-0.0004494
2003.8	-0.0004506
2001.8	-0.0004485
1999.9	-0.0004560
1998.0	-0.0004742
1996.1	-0.0004863
1994.1	-0.0004844
1992.2	-0.0004814
1990.3	-0.0004935
1988.3	-0.0005189
1986.4	-0.0005429
1984.5	-0.0005563
1982.6	-0.0005564
1980.6	-0.0005492
1978.7	-0.0005504
1976.8	-0.0005647
1974.8	-0.0005816
1972.9	-0.0006003
1971.0	-0.0006173
1969.1	-0.0006171
1967.1	-0.0006057
1965.2	-0.0006045
1963.3	-0.0006126
1961.4	-0.0006200
1959.4	-0.0006297
1957.5	-0.0006472
1955.6	-0.0006706
1953.6	-0.0006840
1951.7	-0.0006849
1949.8	-0.0006923
1947.9	-0.0007038
1945.9	-0.0006991
1944.0	-0.0006825
1942.1	-0.0006720
1940.1	-0.0006654
1938.2	-0.0006504
1936.3	-0.0006347
1934.4	-0.0006325
1932.4	-0.0006438
1930.5	-0.0006563
1928.6	-0.0006631
1926.6	-0.0006559
1924.7	-0.0006275
1922.8	-0.0005897
1920.9	-0.0005454
1918.9	-0.0005018
1917.0	-0.0004923
1915.1	-0.0005147
1913.1	-0.0005351
1911.2	-0.0005498
1909.3	-0.0005753
1907.4	-0.0006109
1905.4	-0.0006387
1903.5	-0.0006463
1901.6	-0.0006363
1899.6	-0.0006191
1897.7	-0.0006040
1895.8	-0.0005921
1893.9	-0.0005833
1891.9	-0.0005739
1890.0	-0.0005647
1888.1	-0.0005645
1886.1	-0.0005634
1884.2	-0.0005481
1882.3	-0.0005348
1880.4	-0.0005334
1878.4	-0.0005270
1876.5	-0.0005097
1874.6	-0.0004908
1872.6	-0.0004638
1870.7	-0.0004229
1868.8	-0.0003971
1866.9	-0.0003985
1864.9	-0.0003860
1863.0	-0.0003444
1861.1	-0.0003044
1859.1	-0.0002770
1857.2	-0.0002540
1855.3	-0.0002344
1853.4	-0.0002175
1851.4	-0.0001932
1849.5	-0.0001464
1847.6	-0.0000758
1845.6	-0.0000093
1843.7	0.0000180
1841.8	0.0000186
1839.9	0.0000312
1837.9	0.0000600
1836.0	0.0000934
1834.1	0.0001421
1832.1	0.0002073
1830.2	0.0002514
1828.3	0.0002648
1826.4	0.0002800
1824.4	0.0002981
1822.5	0.0003140
1820.6	0.0003413
1818.6	0.0003736
1816.7	0.0004086
1814.8	0.0004696
1812.9	0.0005583
1810.9	0.0006506
1809.0	0.0007512
1807.1	0.0008960
1805.1	0.0011157
1803.2	0.0014182
1801.3	0.0017828
1799.4	0.0021822
1797.4	0.0025941
1795.5	0.0029690
1793.6	0.0032188
1791.6	0.0032583
1789.7	0.0030920
1787.8	0.0028174
1785.9	0.0025114
1783.9	0.0022190
1782.0	0.0019872
1780.1	0.0018304
1778.1	0.0017528
1776.2	0.0017881
1774.3	0.0019304
1772.4	0.0021007
1770.4	0.0022730
1768.5	0.0025072
1766.6	0.0028444
1764.6	0.0033162
1762.7	0.0039436
1760.8	0.0046560
1758.9	0.0053192
1756.9	0.0058091
1755.0	0.0060654
1753.1	0.0061562
1751.1	0.0062323
1749.2	0.0064893
1747.3	0.0071709
1745.4	0.0085889
1743.4	0.0113755
1741.5	0.0168491
1739.6	0.0266914
1737.6	0.0409678
1735.7	0.0562661
1733.8	0.0670215
1731.9	0.0700856
1729.9	0.0671256
1728.0	0.0613137
1726.1	0.0546891
1724.1	0.0481569
1722.2	0.0420942
1720.3	0.0366698
1718.4	0.0318086
1716.4	0.0274280
1714.5	0.0236046
1712.6	0.0203571
1710.6	0.0175946
1708.7	0.0152231
1706.8	0.0131343
1704.9	0.0112763
1702.9	0.0096845
1701.0	0.0082915
1699.1	0.0070055
1697.1	0.0058527
1695.2	0.0048049
1693.3	0.0038637
1691.4	0.0031031
1689.4	0.0025178
1687.5	0.0021268
1685.6	0.0018806
1683.6	0.0016136
1681.7	0.0013422
1679.8	0.0011962
1677.9	0.0011798
1675.9	0.0011993
1674.0	0.0012050
1672.1	0.0012490
1670.1	0.0013327
1668.2	0.0013874
1666.3	0.0014384
1664.4	0.0015208
1662.4	0.0015714
1660.5	0.0015722
1658.6	0.0015896
1656.6	0.0017052
1654.7	0.0018900
1652.8	0.0019250
1650.9	0.0017764
1648.9	0.0016789
1647.0	0.0016403
1645.1	0.0015105
1643.1	0.0013254
1641.2	0.0011788
1639.3	0.0010925
1637.4	0.0010454
1635.4	0.0009503
1633.5	0.0007778
1631.6	0.0006293
1629.6	0.0005554
1627.7	0.0005136
1625.8	0.0004820
1623.9	0.0004476
1621.9	0.0003914
1620.0	0.0003664
1618.1	0.0004044
1616.1	0.0004102
1614.2	0.0003407
1612.3	0.0002705
1610.4	0.0002368
1608.4	0.0002163
1606.5	0.0001930
1604.6	0.0001740
1602.6	0.0001553
1600.7	0.0001270
1598.8	0.0001053
1596.9	0.0000967
1594.9	0.0000839
1593.0	0.0000693
1591.1	0.0000568
1589.1	0.0000402
1587.2	0.0000353
1585.3	0.0000575
1583.4	0.0000898
1581.4	0.0001177
1579.5	0.0001868
1577.6	0.0002972
1575.6	0.0003119
1573.7	0.0002205
1571.8	0.0001810
1569.9	0.0002002
1567.9	0.0001984
1566.0	0.0001979
1564.1	0.0002527
1562.1	0.0004070
1560.2	0.0005930
1558.3	0.0006310
1556.4	0.0005302
1554.4	0.0004331
1552.5	0.0003773
1550.6	0.0003682
1548.6	0.0004120
1546.7	0.0004985
1544.8	0.0006264
1542.9	0.0007929
1540.9	0.0009412
1539.0	0.0009720
1537.1	0.0009344
1535.1	0.0009512
1533.2	0.0009868
1531.3	0.0009900
1529.4	0.0010027
1527.4	0.0010225
1525.5	0.0010227
1523.6	0.0010233
1521.6	0.0010122
1519.7	0.0009678
1517.8	0.0009383
1515.9	0.0009698
1513.9	0.0010586
1512.0	0.0011668
1510.1	0.0012807
1508.1	0.0013800
1506.2	0.0013368
1504.3	0.0011400
1502.4	0.0009816
1500.4	0.0009407
1498.5	0.0009491
1496.6	0.0009528
1494.6	0.0009640
1492.7	0.0010214
1490.8	0.0010986
1488.9	0.0011370
1486.9	0.0011512
1485.0	0.0011981
1483.1	0.0012915
1481.1	0.0014100
1479.2	0.0015545
1477.3	0.0017388
1475.4	0.0019541
1473.4	0.0021707
1471.5	0.0023556
1469.6	0.0025289
1467.6	0.0027499
1465.7	0.0030114
1463.8	0.0032778
1461.9	0.0036038
1459.9	0.0040796
1458.0	0.0046645
1456.1	0.0052175
1454.1	0.0057360
1452.2	0.0063258
1450.3	0.0069873
1448.4	0.0076409
1446.4	0.0082192
1444.5	0.0087068
1442.6	0.0091232
1440.6	0.0094622
1438.7	0.0096754
1436.8	0.0096562
1434.9	0.0093489
1432.9	0.0088593
1431.0	0.0083291
1429.1	0.0079061
1427.1	0.0077949
1425.2	0.0080796
1423.3	0.0086248
1421.4	0.0092179
1419.4	0.0096391
1417.5	0.0097465
1415.6	0.0095735
1413.6	0.0091713
1411.7	0.0085249
1409.8	0.0076503
1407.9	0.0066330
1405.9	0.0055953
1404.0	0.0046494
1402.1	0.0038797
1400.1	0.0033046
1398.2	0.0028824
1396.3	0.0025549
1394.4	0.0022525
1392.4	0.0019559
1390.5	0.0017020
1388.6	0.0014922
1386.6	0.0013222
1384.7	0.0012218
1382.8	0.0012142
1380.9	0.0013341
1378.9	0.0016531
1377.0	0.0022110
1375.1	0.0029405
1373.1	0.0037226
1371.2	0.0045011
1369.3	0.0052817
1367.4	0.0060333
1365.4	0.0066181
1363.5	0.0068066
1361.6	0.0063960
1359.6	0.0053869
1357.7	0.0040421
1355.8	0.0027389
1353.9	0.0017545
1351.9	0.0011483
1350.0	0.0008151
1348.1	0.0006327
1346.1	0.0005153
1344.2	0.0004086
1342.3	0.0003319
1340.4	0.0003333
1338.4	0.0004018
1336.5	0.0005103
1334.6	0.0006873
1332.6	0.0010218
1330.7	0.0016280
1328.8	0.0026300
1326.9	0.0041934
1324.9	0.0065441
1323.0	0.0098977
1321.1	0.0142073
1319.1	0.0188426
1317.2	0.0226792
1315.3	0.0247517
1313.4	0.0248341
1311.4	0.0233816
1309.5	0.0210797
1307.6	0.0184781
1305.6	0.0158947
1303.7	0.0134837
1301.8	0.0113182
1299.9	0.0094463
1297.9	0.0079169
1296.0	0.0067687
1294.1	0.0059932
1292.1	0.0055134
1290.2	0.0052168
1288.3	0.0050144
1286.4	0.0048519
1284.4	0.0046748
1282.5	0.0044341
1280.6	0.0041291
1278.6	0.0038261
1276.7	0.0035957
1274.8	0.0034432
1272.9	0.0033381
1270.9	0.0032727
1269.0	0.0032577
1267.1	0.0032694
1265.1	0.0032443
1263.2	0.0031747
1261.3	0.0031162
1259.4	0.0030876
1257.4	0.0030719
1255.5	0.0030651
1253.6	0.0030606
1251.6	0.0030453
1249.7	0.0030285
1247.8	0.0030238
1245.9	0.0030114
1243.9	0.0029626
1242.0	0.0028822
1240.1	0.0027953
1238.1	0.0027063
1236.2	0.0025859
1234.3	0.0024299
1232.4	0.0022848
1230.4	0.0021613
1228.5	0.0020119
1226.6	0.0018225
1224.6	0.0016401
1222.7	0.0015106
1220.8	0.0014342
1218.9	0.0013687
1216.9	0.0012785
1215.0	0.0011735
1213.1	0.0010707
1211.1	0.0009753
1209.2	0.0009046
1207.3	0.0008687
1205.4	0.0008517
1203.4	0.0008220
1201.5	0.0007716
1199.6	0.0007200
1197.6	0.0006841
1195.7	0.0006859
1193.8	0.0007228
1191.9	0.0007559
1189.9	0.0007755
1188.0	0.0007957
1186.1	0.0008200
1184.1	0.0008631
1182.2	0.0009149
1180.3	0.0009152
1178.4	0.0008411
1176.4	0.0007477
1174.5	0.0006819
1172.6	0.0006438
1170.6	0.0006323
1168.7	0.0006450
1166.8	0.0006540
1164.9	0.0006390
1162.9	0.0006083
1161.0	0.0005860
1159.1	0.0005795
1157.1	0.0005727
1155.2	0.0005665
1153.3	0.0005805
1151.4	0.0006051
1149.4	0.0005982
1147.5	0.0005582
1145.6	0.0005304
1143.6	0.0005261
1141.7	0.0005072
1139.8	0.0004705
1137.9	0.0004616
1135.9	0.0004854
1134.0	0.0005091
1132.1	0.0005178
1130.1	0.0005215
1128.2	0.0005343
1126.3	0.0005449
1124.4	0.0005429
1122.4	0.0005407
1120.5	0.0005487
1118.6	0.0005645
1116.6	0.0005686
1114.7	0.0005230
1112.8	0.0004568
1110.9	0.0004758
1108.9	0.0006219
1107.0	0.0007904
1105.1	0.0007597
1103.1	0.0005008
1101.2	0.0002770
1099.3	0.0002073
1097.4	0.0002074
1095.4	0.0002073
1093.5	0.0001857
1091.6	0.0001814
1089.6	0.0001910
1087.7	0.0001630
1085.8	0.0001114
1083.9	0.0000883
1081.9	0.0000743
1080.0	0.0000215
1078.1	-0.0000161
1076.1	0.0000183
1074.2	0.0000579
1072.3	0.0000420
1070.4	0.0000449
1068.4	0.0001418
1066.5	0.0003125
1064.6	0.0005747
1062.6	0.0010223
1060.7	0.0017064
1058.8	0.0025500
1056.9	0.0033594
1054.9	0.0039244
1053.0	0.0041192
1051.1	0.0039033
1049.1	0.0033271
1047.2	0.0025957
1045.3	0.0019478
1043.4	0.0014837
1041.4	0.0012171
1039.5	0.0011504
1037.6	0.0012536
1035.6	0.0014905
1033.7	0.0018612
1031.8	0.0023940
1029.9	0.0031007
1027.9	0.0038777
1026.0	0.0045283
1024.1	0.0048854
1022.1	0.0048567
1020.2	0.0044761
1018.3	0.0038926
1016.4	0.0032596
1014.4	0.0026550
1012.5	0.0020825
1010.6	0.0015477
1008.6	0.0010880
1006.7	0.0007210
1004.8	0.0004270
1002.9	0.0002048
1000.9	0.0000774
999.0	0.0000375
997.1	0.0000533
995.1	0.0001211
993.2	0.0002628
991.3	0.0004611
989.4	0.0006887
987.4	0.0009698
985.5	0.0013291
983.6	0.0017401
981.6	0.0021588
979.7	0.0026035
977.8	0.0031129
975.9	0.0036439
973.9	0.0041456
972.0	0.0046204
970.1	0.0050404
968.1	0.0053654
966.2	0.0056277
964.3	0.0058528
962.4	0.0059985
960.4	0.0060408
958.5	0.0060068
956.6	0.0059159
954.6	0.0057734
952.7	0.0056127
950.8	0.0054391
948.9	0.0051889
946.9	0.0048262
945.0	0.0043936
943.1	0.0039537
941.1	0.0035227
939.2	0.0030853
937.3	0.0026558
935.4	0.0022881
933.4	0.0019925
931.5	0.0017056
929.6	0.0014080
927.6	0.0011493
925.7	0.0009413
923.8	0.0007607
921.9	0.0006054
919.9	0.0004859
918.0	0.0003909
916.1	0.0002933
914.1	0.0002099
912.2	0.0001973
910.3	0.0002267
908.4	0.0002245
906.4	0.0002214
904.5	0.0002809
902.6	0.0003881
900.6	0.0004897
898.7	0.0005576
896.8	0.0005601
894.9	0.0004575
892.9	0.0003018
891.0	0.0002003
889.1	0.0001726
887.1	0.0001735
885.2	0.0001784
883.3	0.0001849
881.4	0.0001679
879.4	0.0000931
877.5	0.0000117
875.6	-0.0000131
873.6	-0.0000338
871.7	-0.0000826
869.8	-0.0001148
867.9	-0.0001208
865.9	-0.0001143
864.0	-0.0001171
862.1	-0.0001380
860.1	-0.0001685
858.2	-0.0002164
856.3	-0.0002891
854.4	-0.0003317
852.4	-0.0002534
850.5	-0.0001354
848.6	-0.0001271
