3998.1	1.0010830
3997.2	1.0010475
3996.2	1.0010209
3995.2	1.0010381
3994.3	1.0010805
3993.3	1.0011002
3992.3	1.0011069
3991.4	1.0011017
3990.4	1.0010628
3989.5	1.0010251
3988.5	1.0010117
3987.5	1.0009946
3986.6	1.0009900
3985.6	1.0010276
3984.6	1.0010730
3983.7	1.0010864
3982.7	1.0010828
3981.7	1.0010802
3980.8	1.0010487
3979.8	1.0010068
3978.8	1.0010324
3977.9	1.0011196
3976.9	1.0011859
3975.9	1.0011756
3975.0	1.0011104
3974.0	1.0010619
3973.1	1.0010555
3972.1	1.0010734
3971.1	1.0010779
3970.2	1.0010291
3969.2	1.0009558
3968.2	1.0009284
3967.3	1.0009598
3966.3	1.0009971
3965.3	1.0010009
3964.4	1.0009881
3963.4	1.0009873
3962.4	1.0010190
3961.5	1.0010705
3960.5	1.0010976
3959.6	1.0010917
3958.6	1.0010697
3957.6	1.0010383
3956.7	1.0010182
3955.7	1.0010480
3954.7	1.0011073
3953.8	1.0011226
3952.8	1.0011017
3951.8	1.0010984
3950.9	1.0010946
3949.9	1.0010737
3948.9	1.0010493
3948.0	1.0010197
3947.0	1.0010111
3946.1	1.0010473
3945.1	1.0010842
3944.1	1.0010877
3943.2	1.0010676
3942.2	1.0010360
3941.2	1.0010285
3940.3	1.0010537
3939.3	1.0010558
3938.3	1.0010276
3937.4	1.0010163
3936.4	1.0010152
3935.4	1.0009969
3934.5	1.0009758
3933.5	1.0009645
3932.6	1.0009679
3931.6	1.0009992
3930.6	1.0010434
3929.7	1.0010704
3928.7	1.0010682
3927.7	1.0010545
3926.8	1.0010537
3925.8	1.0010482
3924.8	1.0010310
3923.9	1.0010325
3922.9	1.0010434
3921.9	1.0010509
3921.0	1.0010505
3920.0	1.0010298
3919.1	1.0010145
3918.1	1.0010226
3917.1	1.0010431
3916.2	1.0010695
3915.2	1.0010821
3914.2	1.0010775
3913.3	1.0010698
3912.3	1.0010569
3911.3	1.0010494
3910.4	1.0010543
3909.4	1.0010555
3908.4	1.0010566
3907.5	1.0010592
3906.5	1.0010661
3905.6	1.0011060
3904.6	1.0011389
3903.6	1.0011045
3902.7	1.0010498
3901.7	1.0010334
3900.7	1.0010486
3899.8	1.0010692
3898.8	1.0010761
3897.8	1.0010645
3896.9	1.0010500
3895.9	1.0010396
3894.9	1.0010237
3894.0	1.0010172
3893.0	1.0010388
3892.1	1.0010474
3891.1	1.0010147
3890.1	1.0009934
3889.2	1.0010099
3888.2	1.0010405
3887.2	1.0010787
3886.3	1.0010991
3885.3	1.0010939
3884.3	1.0011007
3883.4	1.0011169
3882.4	1.0011051
3881.4	1.0010611
3880.5	1.0010246
3879.5	1.0010237
3878.6	1.0010426
3877.6	1.0010650
3876.6	1.0010782
3875.7	1.0010701
3874.7	1.0010569
3873.7	1.0010686
3872.8	1.0011005
3871.8	1.0011553
3870.8	1.0012296
3869.9	1.0012383
3868.9	1.0011530
3867.9	1.0010796
3867.0	1.0010804
3866.0	1.0011170
3865.1	1.0011355
3864.1	1.0011119
3863.1	1.0010579
3862.2	1.0010085
3861.2	1.0009842
3860.2	1.0009744
3859.3	1.0009795
3858.3	1.0009960
3857.3	1.0010154
3856.4	1.0010891
3855.4	1.0012197
3854.4	1.0013037
3853.5	1.0013201
3852.5	1.0013200
3851.6	1.0012796
3850.6	1.0011988
3849.6	1.0011315
3848.7	1.0011111
3847.7	1.0011177
3846.7	1.0011001
3845.8	1.0010742
3844.8	1.0010595
3843.8	1.0010225
3842.9	1.0010235
3841.9	1.0011083
3840.9	1.0011452
3840.0	1.0011106
3839.0	1.0011250
3838.0	1.0011437
3837.1	1.0011121
3836.1	1.0011172
3835.2	1.0011469
3834.2	1.0011203
3833.2	1.0010451
3832.3	1.0009952
3831.3	1.0009919
3830.3	1.0009767
3829.4	1.0009537
3828.4	1.0009588
3827.4	1.0009820
3826.5	1.0010099
3825.5	1.0010208
3824.5	1.0010362
3823.6	1.0011066
3822.6	1.0011895
3821.7	1.0011861
3820.7	1.0011008
3819.7	1.0010513
3818.8	1.0010990
3817.8	1.0011826
3816.8	1.0012019
3815.9	1.0011363
3814.9	1.0010481
3813.9	1.0009824
3813.0	1.0009542
3812.0	1.0009639
3811.0	1.0009992
3810.1	1.0010346
3809.1	1.0010554
3808.2	1.0010648
3807.2	1.0010514
3806.2	1.0010301
3805.3	1.0010210
3804.3	1.0010213
3803.3	1.0010638
3802.4	1.0011432
3801.4	1.0011845
3800.4	1.0011685
3799.5	1.0011172
3798.5	1.0010450
3797.5	1.0010000
3796.6	1.0010064
3795.6	1.0010375
3794.7	1.0010628
3793.7	1.0010384
3792.7	1.0009784
3791.8	1.0009570
3790.8	1.0009948
3789.8	1.0010546
3788.9	1.0010945
3787.9	1.0010921
3786.9	1.0010552
3786.0	1.0010183
3785.0	1.0010173
3784.0	1.0010518
3783.1	1.0010875
3782.1	1.0010893
3781.2	1.0010648
3780.2	1.0010644
3779.2	1.0011011
3778.3	1.0011251
3777.3	1.0010943
3776.3	1.0010219
3775.4	1.0009705
3774.4	1.0009663
3773.4	1.0009714
3772.5	1.0009738
3771.5	1.0009903
3770.5	1.0010124
3769.6	1.0010258
3768.6	1.0010380
3767.7	1.0010614
3766.7	1.0010809
3765.7	1.0010647
3764.8	1.0010220
3763.8	1.0010115
3762.8	1.0010459
3761.9	1.0010823
3760.9	1.0010885
3759.9	1.0010512
3759.0	1.0010067
3758.0	1.0009983
3757.0	1.0010018
3756.1	1.0009830
3755.1	1.0009650
3754.2	1.0010091
3753.2	1.0010976
3752.2	1.0011427
3751.3	1.0011605
3750.3	1.0012097
3749.3	1.0012281
3748.4	1.0011513
3747.4	1.0010669
3746.4	1.0011168
3745.5	1.0012559
3744.5	1.0012510
3743.5	1.0010892
3742.6	1.0009924
3741.6	1.0009965
3740.7	1.0010033
3739.7	1.0010036
3738.7	1.0010251
3737.8	1.0010642
3736.8	1.0010985
3735.8	1.0011023
3734.9	1.0010751
3733.9	1.0010551
3732.9	1.0010717
3732.0	1.0010871
3731.0	1.0010624
3730.0	1.0010048
3729.1	1.0009553
3728.1	1.0009775
3727.2	1.0010387
3726.2	1.0010422
3725.2	1.0010202
3724.3	1.0010499
3723.3	1.0010965
3722.3	1.0011011
3721.4	1.0010705
3720.4	1.0010414
3719.4	1.0010349
3718.5	1.0010381
3717.5	1.0010252
3716.5	1.0009975
3715.6	1.0009797
3714.6	1.0010035
3713.7	1.0010790
3712.7	1.0011328
3711.7	1.0010893
3710.8	1.0010120
3709.8	1.0009845
3708.8	1.0009785
3707.9	1.0009792
3706.9	1.0010172
3705.9	1.0010633
3705.0	1.0010685
3704.0	1.0010483
3703.0	1.0010430
3702.1	1.0010462
3701.1	1.0010326
3700.1	1.0010015
3699.2	1.0009638
3698.2	1.0009294
3697.3	1.0009080
3696.3	1.0009124
3695.3	1.0009428
3694.4	1.0009813
3693.4	1.0010070
3692.4	1.0010122
3691.5	1.0010171
3690.5	1.0010574
3689.5	1.0011275
3688.6	1.0011489
3687.6	1.0010860
3686.6	1.0010231
3685.7	1.0010161
3684.7	1.0010248
3683.8	1.0010076
3682.8	1.0009792
3681.8	1.0009785
3680.9	1.0010036
3679.9	1.0010116
3678.9	1.0009918
3678.0	1.0010095
3677.0	1.0010971
3676.0	1.0011561
3675.1	1.0011088
3674.1	1.0010351
3673.1	1.0010388
3672.2	1.0011119
3671.2	1.0011493
3670.3	1.0010943
3669.3	1.0010352
3668.3	1.0010387
3667.4	1.0010628
3666.4	1.0010601
3665.4	1.0010166
3664.5	1.0009576
3663.5	1.0009344
3662.5	1.0009561
3661.6	1.0009805
3660.6	1.0009801
3659.6	1.0009651
3658.7	1.0009651
3657.7	1.0009979
3656.8	1.0010332
3655.8	1.0010337
3654.8	1.0010209
3653.9	1.0010360
3652.9	1.0010667
3651.9	1.0010827
3651.0	1.0010941
3650.0	1.0011141
3649.0	1.0011233
3648.1	1.0010942
3647.1	1.0010302
3646.1	1.0009856
3645.2	1.0009867
3644.2	1.0009990
3643.3	1.0010107
3642.3	1.0010222
3641.3	1.0010153
3640.4	1.0009999
3639.4	1.0010018
3638.4	1.0010241
3637.5	1.0010527
3636.5	1.0010656
3635.5	1.0010393
3634.6	1.0009848
3633.6	1.0009532
3632.6	1.0009730
3631.7	1.0010246
3630.7	1.0010811
3629.8	1.0011089
3628.8	1.0010713
3627.8	1.0009830
3626.9	1.0009114
3625.9	1.0008825
3624.9	1.0008709
3624.0	1.0008763
3623.0	1.0008922
3622.0	1.0009037
3621.1	1.0009264
3620.1	1.0009372
3619.1	1.0009046
3618.2	1.0008713
3617.2	1.0008668
3616.3	1.0008556
3615.3	1.0008166
3614.3	1.0007721
3613.4	1.0007190
3612.4	1.0006334
3611.4	1.0005312
3610.5	1.0004185
3609.5	1.0002388
3608.5	0.9999570
3607.6	0.9996244
3606.6	0.9992868
3605.6	0.9989377
3604.7	0.9985734
3603.7	0.9982215
3602.8	0.9979362
3601.8	0.9977204
3600.8	0.9974777
3599.9	0.9971650
3598.9	0.9968830
3597.9	0.9967242
3597.0	0.9966488
3596.0	0.9965651
3595.0	0.9964425
3594.1	0.9963330
3593.1	0.9962925
3592.1	0.9963155
3591.2	0.9963986
3590.2	0.9965553
3589.3	0.9967587
3588.3	0.9969950
3587.3	0.9972772
3586.4	0.9975761
3585.4	0.9978501
3584.4	0.9981015
3583.5	0.9983643
3582.5	0.9986383
3581.5	0.9988825
3580.6	0.9991047
3579.6	0.9993194
3578.6	0.9995027
3577.7	0.9996741
3576.7	0.9998524
3575.8	0.9999925
3574.8	1.0000895
3573.8	1.0001892
3572.9	1.0002997
3571.9	1.0003955
3570.9	1.0004699
3570.0	1.0005424
3569.0	1.0006289
3568.0	1.0007128
3567.1	1.0007780
3566.1	1.0008194
3565.1	1.0008200
3564.2	1.0007998
3563.2	1.0008072
3562.3	1.0008367
3561.3	1.0008556
3560.3	1.0008569
3559.4	1.0008571
3558.4	1.0008748
3557.4	1.0009005
3556.5	1.0009025
3555.5	1.0008872
3554.5	1.0008954
3553.6	1.0009184
3552.6	1.0009239
3551.6	1.0009327
3550.7	1.0009549
3549.7	1.0009587
3548.7	1.0009404
3547.8	1.0009296
3546.8	1.0009400
3545.9	1.0009570
3544.9	1.0009698
3543.9	1.0009614
3543.0	1.0009305
3542.0	1.0009254
3541.0	1.0009590
3540.1	1.0009756
3539.1	1.0009495
3538.1	1.0009392
3537.2	1.0009791
3536.2	1.0009949
3535.2	1.0009465
3534.3	1.0009016
3533.3	1.0009077
3532.4	1.0009278
3531.4	1.0009358
3530.4	1.0009604
3529.5	1.0009831
3528.5	1.0009654
3527.5	1.0009427
3526.6	1.0009592
3525.6	1.0010023
3524.6	1.0010272
3523.7	1.0010064
3522.7	1.0009655
3521.7	1.0009307
3520.8	1.0009110
3519.8	1.0009235
3518.9	1.0009485
3517.9	1.0009440
3516.9	1.0009320
3516.0	1.0009370
3515.0	1.0009395
3514.0	1.0009491
3513.1	1.0009551
3512.1	1.0009264
3511.1	1.0009127
3510.2	1.0009574
3509.2	1.0010060
3508.2	1.0010074
3507.3	1.0009958
3506.3	1.0010147
3505.4	1.0010382
3504.4	1.0010270
3503.4	1.0009906
3502.5	1.0009547
3501.5	1.0009398
3500.5	1.0009543
3499.6	1.0009719
3498.6	1.0009601
3497.6	1.0009382
3496.7	1.0009409
3495.7	1.0009536
3494.7	1.0009539
3493.8	1.0009527
3492.8	1.0009530
3491.9	1.0009400
3490.9	1.0009298
3489.9	1.0009494
3489.0	1.0009661
3488.0	1.0009621
3487.0	1.0009794
3486.1	1.0010111
3485.1	1.0010151
3484.1	1.0009885
3483.2	1.0009488
3482.2	1.0009315
3481.2	1.0009512
3480.3	1.0009565
3479.3	1.0009248
3478.4	1.0009086
3477.4	1.0009334
3476.4	1.0009632
3475.5	1.0009754
3474.5	1.0009871
3473.5	1.0009973
3472.6	1.0009866
3471.6	1.0009604
3470.6	1.0009395
3469.7	1.0009420
3468.7	1.0009702
3467.7	1.0009885
3466.8	1.0009661
3465.8	1.0009241
3464.9	1.0009098
3463.9	1.0009384
3462.9	1.0009644
3462.0	1.0009447
3461.0	1.0009128
3460.0	1.0009153
3459.1	1.0009354
3458.1	1.0009454
3457.1	1.0009452
3456.2	1.0009408
3455.2	1.0009470
3454.2	1.0009494
3453.3	1.0009153
3452.3	1.0008777
3451.4	1.0008837
3450.4	1.0009239
3449.4	1.0009673
3448.5	1.0009748
3447.5	1.0009459
3446.5	1.0009331
3445.6	1.0009551
3444.6	1.0009832
3443.6	1.0009923
3442.7	1.0009906
3441.7	1.0009958
3440.7	1.0009820
3439.8	1.0009494
3438.8	1.0009534
3437.9	1.0009904
3436.9	1.0010158
3435.9	1.0010234
3435.0	1.0010064
3434.0	1.0009691
3433.0	1.0009422
3432.1	1.0009185
3431.1	1.0009050
3430.1	1.0009350
3429.2	1.0009633
3428.2	1.0009459
3427.2	1.0009273
3426.3	1.0009302
3425.3	1.0009314
3424.4	1.0009325
3423.4	1.0009402
3422.4	1.0009427
3421.5	1.0009478
3420.5	1.0009732
3419.5	1.0009851
3418.6	1.0009550
3417.6	1.0009251
3416.6	1.0009042
3415.7	1.0008627
3414.7	1.0008390
3413.7	1.0008751
3412.8	1.0009339
3411.8	1.0009559
3410.8	1.0009294
3409.9	1.0009053
3408.9	1.0009178
3408.0	1.0009363
3407.0	1.0009594
3406.0	1.0009999
3405.1	1.0010172
3404.1	1.0009967
3403.1	1.0009675
3402.2	1.0009441
3401.2	1.0009315
3400.2	1.0009333
3399.3	1.0009444
3398.3	1.0009438
3397.3	1.0009278
3396.4	1.0009168
3395.4	1.0009207
3394.5	1.0009338
3393.5	1.0009511
3392.5	1.0009660
3391.6	1.0009620
3390.6	1.0009470
3389.6	1.0009475
3388.7	1.0009508
3387.7	1.0009342
3386.7	1.0009131
3385.8	1.0009115
3384.8	1.0009263
3383.8	1.0009297
3382.9	1.0009207
3381.9	1.0009313
3381.0	1.0009557
3380.0	1.0009665
3379.0	1.0009738
3378.1	1.0009779
3377.1	1.0009575
3376.1	1.0009285
3375.2	1.0009121
3374.2	1.0009072
3373.2	1.0009109
3372.3	1.0009061
3371.3	1.0008966
3370.3	1.0009133
3369.4	1.0009367
3368.4	1.0009056
3367.5	1.0008414
3366.5	1.0008357
3365.5	1.0009016
3364.6	1.0009625
3363.6	1.0009673
3362.6	1.0009315
3361.7	1.0009081
3360.7	1.0009177
3359.7	1.0009259
3358.8	1.0009173
3357.8	1.0009183
3356.8	1.0009260
3355.9	1.0009208
3354.9	1.0009071
3354.0	1.0009025
3353.0	1.0009207
3352.0	1.0009501
3351.1	1.0009714
3350.1	1.0009822
3349.1	1.0009807
3348.2	1.0009692
3347.2	1.0009528
3346.2	1.0009390
3345.3	1.0009222
3344.3	1.0008857
3343.3	1.0008625
3342.4	1.0008783
3341.4	1.0008937
3340.5	1.0009072
3339.5	1.0009439
3338.5	1.0009778
3337.6	1.0009809
3336.6	1.0009634
3335.6	1.0009432
3334.7	1.0009334
3333.7	1.0009471
3332.7	1.0009693
3331.8	1.0009588
3330.8	1.0009258
3329.8	1.0009123
3328.9	1.0009090
3327.9	1.0008938
3327.0	1.0008805
3326.0	1.0008918
3325.0	1.0009221
3324.1	1.0009375
3323.1	1.0009267
3322.1	1.0009124
3321.2	1.0009156
3320.2	1.0009340
3319.2	1.0009376
3318.3	1.0009249
3317.3	1.0009260
3316.3	1.0009233
3315.4	1.0008968
3314.4	1.0008718
3313.5	1.0008637
3312.5	1.0008854
3311.5	1.0009496
3310.6	1.0010037
3309.6	1.0009792
3308.6	1.0009086
3307.7	1.0008639
3306.7	1.0008519
3305.7	1.0008508
3304.8	1.0008441
3303.8	1.0008298
3302.8	1.0008372
3301.9	1.0008811
3300.9	1.0009269
3300.0	1.0009348
3299.0	1.0009154
3298.0	1.0008947
3297.1	1.0008767
3296.1	1.0008738
3295.1	1.0008807
3294.2	1.0008796
3293.2	1.0008880
3292.2	1.0009155
3291.3	1.0009339
3290.3	1.0009326
3289.3	1.0009285
3288.4	1.0009211
3287.4	1.0009106
3286.5	1.0009084
3285.5	1.0009090
3284.5	1.0009029
3283.6	1.0008991
3282.6	1.0009102
3281.6	1.0009340
3280.7	1.0009561
3279.7	1.0009586
3278.7	1.0009345
3277.8	1.0009003
3276.8	1.0008719
3275.8	1.0008587
3274.9	1.0008690
3273.9	1.0008938
3272.9	1.0009096
3272.0	1.0008984
3271.0	1.0008664
3270.1	1.0008479
3269.1	1.0008689
3268.1	1.0009122
3267.2	1.0009371
3266.2	1.0009173
3265.2	1.0008786
3264.3	1.0008771
3263.3	1.0009072
3262.3	1.0009224
3261.4	1.0009241
3260.4	1.0009347
3259.4	1.0009340
3258.5	1.0008955
3257.5	1.0008476
3256.6	1.0008371
3255.6	1.0008601
3254.6	1.0008839
3253.7	1.0008926
3252.7	1.0008936
3251.7	1.0008941
3250.8	1.0008824
3249.8	1.0008726
3248.8	1.0008812
3247.9	1.0008667
3246.9	1.0008417
3245.9	1.0008602
3245.0	1.0008986
3244.0	1.0009214
3243.1	1.0009221
3242.1	1.0009022
3241.1	1.0008783
3240.2	1.0008675
3239.2	1.0008696
3238.2	1.0008610
3237.3	1.0008494
3236.3	1.0008638
3235.3	1.0008940
3234.4	1.0009149
3233.4	1.0009168
3232.4	1.0009115
3231.5	1.0009108
3230.5	1.0009128
3229.6	1.0009189
3228.6	1.0009223
3227.6	1.0009090
3226.7	1.0008892
3225.7	1.0008764
3224.7	1.0008721
3223.8	1.0008867
3222.8	1.0009038
3221.8	1.0008960
3220.9	1.0008801
3219.9	1.0008675
3218.9	1.0008452
3218.0	1.0008351
3217.0	1.0008632
3216.1	1.0008781
3215.1	1.0008377
3214.1	1.0008013
3213.2	1.0008218
3212.2	1.0008785
3211.2	1.0009215
3210.3	1.0009271
3209.3	1.0009137
3208.3	1.0009054
3207.4	1.0009030
3206.4	1.0009009
3205.4	1.0009067
3204.5	1.0009111
3203.5	1.0008855
3202.6	1.0008333
3201.6	1.0007983
3200.6	1.0008101
3199.7	1.0008345
3198.7	1.0008334
3197.7	1.0008199
3196.8	1.0008397
3195.8	1.0008965
3194.8	1.0009260
3193.9	1.0009038
3192.9	1.0008690
3191.9	1.0008533
3191.0	1.0008612
3190.0	1.0008755
3189.1	1.0008767
3188.1	1.0008566
3187.1	1.0008386
3186.2	1.0008464
3185.2	1.0008447
3184.2	1.0008100
3183.3	1.0007896
3182.3	1.0008086
3181.3	1.0008336
3180.4	1.0008560
3179.4	1.0008769
3178.4	1.0008794
3177.5	1.0008695
3176.5	1.0008649
3175.6	1.0008690
3174.6	1.0008748
3173.6	1.0008900
3172.7	1.0009120
3171.7	1.0008972
3170.7	1.0008527
3169.8	1.0008403
3168.8	1.0008698
3167.8	1.0008979
3166.9	1.0009050
3165.9	1.0009028
3164.9	1.0008883
3164.0	1.0008657
3163.0	1.0008527
3162.1	1.0008403
3161.1	1.0008260
3160.1	1.0008290
3159.2	1.0008389
3158.2	1.0008439
3157.2	1.0008490
3156.3	1.0008390
3155.3	1.0008166
3154.3	1.0008116
3153.4	1.0008243
3152.4	1.0008358
3151.4	1.0008401
3150.5	1.0008380
3149.5	1.0008342
3148.6	1.0008355
3147.6	1.0008543
3146.6	1.0008845
3145.7	1.0008903
3144.7	1.0008559
3143.7	1.0008084
3142.8	1.0007701
3141.8	1.0007640
3140.8	1.0007901
3139.9	1.0007969
3138.9	1.0007833
3137.9	1.0008029
3137.0	1.0008373
3136.0	1.0008310
3135.1	1.0007844
3134.1	1.0007397
3133.1	1.0007311
3132.2	1.0007504
3131.2	1.0007664
3130.2	1.0007731
3129.3	1.0007718
3128.3	1.0007545
3127.3	1.0007384
3126.4	1.0007393
3125.4	1.0007532
3124.4	1.0007762
3123.5	1.0007960
3122.5	1.0008054
3121.5	1.0008078
3120.6	1.0008085
3119.6	1.0008144
3118.7	1.0008157
3117.7	1.0007945
3116.7	1.0007602
3115.8	1.0007373
3114.8	1.0007179
3113.8	1.0006864
3112.9	1.0006685
3111.9	1.0006833
3110.9	1.0006813
3110.0	1.0006285
3109.0	1.0005845
3108.0	1.0005865
3107.1	1.0005895
3106.1	1.0005831
3105.2	1.0005949
3104.2	1.0006005
3103.2	1.0005761
3102.3	1.0005635
3101.3	1.0005828
3100.3	1.0005935
3099.4	1.0005693
3098.4	1.0005282
3097.4	1.0004936
3096.5	1.0004739
3095.5	1.0004632
3094.5	1.0004485
3093.6	1.0004312
3092.6	1.0004151
3091.7	1.0003805
3090.7	1.0003320
3089.7	1.0003095
3088.8	1.0003165
3087.8	1.0003169
3086.8	1.0003020
3085.9	1.0002840
3084.9	1.0002657
3083.9	1.0002526
3083.0	1.0002410
3082.0	1.0002220
3081.0	1.0001992
3080.1	1.0001657
3079.1	1.0001056
3078.2	1.0000188
3077.2	0.9999247
3076.2	0.9998419
3075.3	0.9997724
3074.3	0.9997141
3073.3	0.9996653
3072.4	0.9996198
3071.4	0.9995771
3070.4	0.9995384
3069.5	0.9995099
3068.5	0.9995068
3067.5	0.9995271
3066.6	0.9995468
3065.6	0.9995544
3064.7	0.9995537
3063.7	0.9995461
3062.7	0.9995375
3061.8	0.9995549
3060.8	0.9996195
3059.8	0.9997141
3058.9	0.9998136
3057.9	0.9999111
3056.9	0.9999886
3056.0	1.0000358
3055.0	1.0000843
3054.0	1.0001464
3053.1	1.0002052
3052.1	1.0002639
3051.2	1.0003345
3050.2	1.0004023
3049.2	1.0004418
3048.3	1.0004661
3047.3	1.0005047
3046.3	1.0005581
3045.4	1.0006113
3044.4	1.0006295
3043.4	1.0006043
3042.5	1.0005882
3041.5	1.0006037
3040.5	1.0006260
3039.6	1.0006481
3038.6	1.0006723
3037.7	1.0006894
3036.7	1.0006999
3035.7	1.0007001
3034.8	1.0006893
3033.8	1.0006764
3032.8	1.0006609
3031.9	1.0006560
3030.9	1.0006750
3029.9	1.0006888
3029.0	1.0006670
3028.0	1.0006213
3027.0	1.0005798
3026.1	1.0005454
3025.1	1.0005008
3024.2	1.0004207
3023.2	1.0002832
3022.2	1.0001055
3021.3	0.9999430
3020.3	0.9998357
3019.3	0.9997787
3018.4	0.9997373
3017.4	0.9996799
3016.4	0.9996157
3015.5	0.9995773
3014.5	0.9995582
3013.5	0.9995412
3012.6	0.9995216
3011.6	0.9994946
3010.7	0.9994852
3009.7	0.9995166
3008.7	0.9995629
3007.8	0.9996001
3006.8	0.9996448
3005.8	0.9997169
3004.9	0.9998220
3003.9	0.9999486
3002.9	1.0000676
3002.0	1.0001622
3001.0	1.0002434
3000.0	1.0003197
2999.1	1.0003798
2998.1	1.0004222
2997.2	1.0004592
2996.2	1.0004876
2995.2	1.0005082
2994.3	1.0005370
2993.3	1.0005673
2992.3	1.0005740
2991.4	1.0005610
2990.4	1.0005561
2989.4	1.0005546
2988.5	1.0005474
2987.5	1.0005472
2986.5	1.0005430
2985.6	1.0005180
2984.6	1.0004889
2983.6	1.0004745
2982.7	1.0004610
2981.7	1.0004280
2980.8	1.0003823
2979.8	1.0003337
2978.8	1.0002773
2977.9	1.0002159
2976.9	1.0001543
2975.9	1.0001003
2975.0	1.0000576
2974.0	1.0000093
2973.0	0.9999430
2972.1	0.9998662
2971.1	0.9997906
2970.1	0.9997215
2969.2	0.9996436
2968.2	0.9995328
2967.3	0.9993836
2966.3	0.9992176
2965.3	0.9990674
2964.4	0.9989614
2963.4	0.9989439
2962.4	0.9990323
2961.5	0.9991598
2960.5	0.9992453
2959.5	0.9992805
2958.6	0.9992977
2957.6	0.9992978
2956.6	0.9992890
2955.7	0.9993052
2954.7	0.9993322
2953.8	0.9993533
2952.8	0.9993942
2951.8	0.9994631
2950.9	0.9995403
2949.9	0.9996166
2948.9	0.9996937
2948.0	0.9997619
2947.0	0.9998194
2946.0	0.9998835
2945.1	0.9999536
2944.1	1.0000015
2943.1	1.0000178
2942.2	1.0000346
2941.2	1.0000774
2940.3	1.0001321
2939.3	1.0001671
2938.3	1.0001644
2937.4	1.0001407
2936.4	1.0001265
2935.4	1.0001450
2934.5	1.0001798
2933.5	1.0001785
2932.5	1.0001438
2931.6	1.0001210
2930.6	1.0001060
2929.6	1.0000750
2928.7	1.0000409
2927.7	1.0000151
2926.8	1.0000008
2925.8	0.9999977
2924.8	0.9999731
2923.9	0.9999030
2922.9	0.9998335
2921.9	0.9998245
2921.0	0.9998650
2920.0	0.9998978
2919.0	0.9999089
2918.1	0.9999275
2917.1	0.9999651
2916.1	1.0000086
2915.2	1.0000553
2914.2	1.0001092
2913.3	1.0001587
2912.3	1.0002043
2911.3	1.0002600
2910.4	1.0003151
2909.4	1.0003500
2908.4	1.0003682
2907.5	1.0004048
2906.5	1.0004617
2905.5	1.0004859
2904.6	1.0004764
2903.6	1.0004873
2902.6	1.0005136
2901.7	1.0005187
2900.7	1.0005234
2899.8	1.0005611
2898.8	1.0005975
2897.8	1.0005918
2896.9	1.0005714
2895.9	1.0005784
2894.9	1.0006108
2894.0	1.0006338
2893.0	1.0006238
2892.0	1.0006061
2891.1	1.0006120
2890.1	1.0006279
2889.1	1.0006244
2888.2	1.0006077
2887.2	1.0006151
2886.3	1.0006475
2885.3	1.0006613
2884.3	1.0006567
2883.4	1.0006616
2882.4	1.0006659
2881.4	1.0006508
2880.5	1.0006161
2879.5	1.0005857
2878.5	1.0005853
2877.6	1.0006115
2876.6	1.0006524
2875.6	1.0006809
2874.7	1.0006623
2873.7	1.0006180
2872.8	1.0005958
2871.8	1.0005959
2870.8	1.0005904
2869.9	1.0005715
2868.9	1.0005435
2867.9	1.0004953
2867.0	1.0004218
2866.0	1.0003550
2865.0	1.0003278
2864.1	1.0003089
2863.1	1.0002432
2862.1	1.0001277
2861.2	1.0000145
2860.2	0.9999578
2859.3	0.9999354
2858.3	0.9998908
2857.3	0.9998266
2856.4	0.9997723
2855.4	0.9997491
2854.4	0.9997616
2853.5	0.9997864
2852.5	0.9997973
2851.5	0.9997845
2850.6	0.9997614
2849.6	0.9997554
2848.6	0.9997752
2847.7	0.9998105
2846.7	0.9998491
2845.7	0.9998965
2844.8	0.9999645
2843.8	1.0000465
2842.9	1.0001287
2841.9	1.0001994
2840.9	1.0002617
2840.0	1.0003361
2839.0	1.0004225
2838.0	1.0004872
2837.1	1.0005211
2836.1	1.0005475
2835.1	1.0005678
2834.2	1.0005711
2833.2	1.0005854
2832.2	1.0006304
2831.3	1.0006616
2830.3	1.0006608
2829.4	1.0006603
2828.4	1.0006593
2827.4	1.0006515
2826.5	1.0006438
2825.5	1.0006398
2824.5	1.0006570
2823.6	1.0006789
2822.6	1.0006719
2821.6	1.0006553
2820.7	1.0006469
2819.7	1.0006405
2818.7	1.0006553
2817.8	1.0006791
2816.8	1.0006642
2815.9	1.0006337
2814.9	1.0006483
2813.9	1.0006891
2813.0	1.0006915
2812.0	1.0006582
2811.0	1.0006465
2810.1	1.0006735
2809.1	1.0007032
2808.1	1.0007064
2807.2	1.0007058
2806.2	1.0007095
2805.2	1.0006855
2804.3	1.0006573
2803.3	1.0006715
2802.4	1.0006965
2801.4	1.0006999
2800.4	1.0007167
2799.5	1.0007533
2798.5	1.0007715
2797.5	1.0007675
2796.6	1.0007524
2795.6	1.0007354
2794.6	1.0007248
2793.7	1.0007254
2792.7	1.0007445
2791.7	1.0007567
2790.8	1.0007261
2789.8	1.0006970
2788.9	1.0007228
2787.9	1.0007572
2786.9	1.0007548
2786.0	1.0007421
2785.0	1.0007309
2784.0	1.0007186
2783.1	1.0007263
2782.1	1.0007657
2781.1	1.0008019
2780.2	1.0007802
2779.2	1.0007166
2778.2	1.0006863
2777.3	1.0007037
2776.3	1.0007230
2775.4	1.0007184
2774.4	1.0007056
2773.4	1.0007029
2772.5	1.0006920
2771.5	1.0006766
2770.5	1.0006800
2769.6	1.0006888
2768.6	1.0006963
2767.6	1.0007107
2766.7	1.0007224
2765.7	1.0007244
2764.7	1.0007218
2763.8	1.0007219
2762.8	1.0007210
2761.9	1.0007019
2760.9	1.0006700
2759.9	1.0006516
2759.0	1.0006561
2758.0	1.0006735
2757.0	1.0006889
2756.1	1.0006826
2755.1	1.0006654
2754.1	1.0006590
2753.2	1.0006661
2752.2	1.0006850
2751.2	1.0007000
2750.3	1.0006995
2749.3	1.0006955
2748.4	1.0006956
2747.4	1.0006912
2746.4	1.0006797
2745.5	1.0006824
2744.5	1.0007021
2743.5	1.0007148
2742.6	1.0007210
2741.6	1.0007279
2740.6	1.0007186
2739.7	1.0007002
2738.7	1.0006903
2737.7	1.0006744
2736.8	1.0006504
2735.8	1.0006427
2734.9	1.0006509
2733.9	1.0006521
2732.9	1.0006520
2732.0	1.0006686
2731.0	1.0006931
2730.0	1.0007108
2729.1	1.0007159
2728.1	1.0007058
2727.1	1.0006884
2726.2	1.0006740
2725.2	1.0006615
2724.2	1.0006590
2723.3	1.0006692
2722.3	1.0006652
2721.4	1.0006438
2720.4	1.0006398
2719.4	1.0006592
2718.5	1.0006903
2717.5	1.0007238
2716.5	1.0007415
2715.6	1.0007300
2714.6	1.0007011
2713.6	1.0006840
2712.7	1.0006952
2711.7	1.0007081
2710.7	1.0007015
2709.8	1.0006962
2708.8	1.0007101
2707.9	1.0007272
2706.9	1.0007284
2705.9	1.0007209
2705.0	1.0007291
2704.0	1.0007378
2703.0	1.0007116
2702.1	1.0006813
2701.1	1.0006928
2700.1	1.0007098
2699.2	1.0007039
2698.2	1.0007033
2697.2	1.0007119
2696.3	1.0007118
2695.3	1.0007155
2694.3	1.0007367
2693.4	1.0007554
2692.4	1.0007542
2691.5	1.0007440
2690.5	1.0007334
2689.5	1.0007161
2688.6	1.0007054
2687.6	1.0007163
2686.6	1.0007238
2685.7	1.0007176
2684.7	1.0007181
2683.7	1.0007033
2682.8	1.0006645
2681.8	1.0006561
2680.8	1.0006874
2679.9	1.0007074
2678.9	1.0007068
2678.0	1.0007021
2677.0	1.0006968
2676.0	1.0006949
2675.1	1.0007013
2674.1	1.0007139
2673.1	1.0007222
2672.2	1.0007265
2671.2	1.0007230
2670.2	1.0007135
2669.3	1.0007104
2668.3	1.0007043
2667.3	1.0006915
2666.4	1.0006899
2665.4	1.0006989
2664.5	1.0007013
2663.5	1.0006965
2662.5	1.0006998
2661.6	1.0007098
2660.6	1.0007117
2659.6	1.0006975
2658.7	1.0006821
2657.7	1.0006801
2656.7	1.0006858
2655.8	1.0006973
2654.8	1.0007071
2653.8	1.0007077
2652.9	1.0007147
2651.9	1.0007261
2651.0	1.0007221
2650.0	1.0007002
2649.0	1.0006760
2648.1	1.0006695
2647.1	1.0006827
2646.1	1.0006899
2645.2	1.0006818
2644.2	1.0006672
2643.2	1.0006529
2642.3	1.0006419
2641.3	1.0006334
2640.3	1.0006280
2639.4	1.0006315
2638.4	1.0006367
2637.5	1.0006398
2636.5	1.0006453
2635.5	1.0006515
2634.6	1.0006590
2633.6	1.0006649
2632.6	1.0006589
2631.7	1.0006464
2630.7	1.0006378
2629.7	1.0006334
2628.8	1.0006419
2627.8	1.0006598
2626.8	1.0006659
2625.9	1.0006690
2624.9	1.0006827
2624.0	1.0006912
2623.0	1.0006901
2622.0	1.0006851
2621.1	1.0006676
2620.1	1.0006435
2619.1	1.0006305
2618.2	1.0006398
2617.2	1.0006554
2616.2	1.0006630
2615.3	1.0006775
2614.3	1.0006878
2613.3	1.0006731
2612.4	1.0006527
2611.4	1.0006444
2610.5	1.0006434
2609.5	1.0006514
2608.5	1.0006695
2607.6	1.0006756
2606.6	1.0006646
2605.6	1.0006596
2604.7	1.0006628
2603.7	1.0006672
2602.7	1.0006689
2601.8	1.0006638
2600.8	1.0006592
2599.8	1.0006565
2598.9	1.0006460
2597.9	1.0006299
2597.0	1.0006186
2596.0	1.0006248
2595.0	1.0006489
2594.1	1.0006680
2593.1	1.0006746
2592.1	1.0006799
2591.2	1.0006787
2590.2	1.0006636
2589.2	1.0006399
2588.3	1.0006181
2587.3	1.0006180
2586.3	1.0006434
2585.4	1.0006616
2584.4	1.0006601
2583.5	1.0006665
2582.5	1.0006825
2581.5	1.0006709
2580.6	1.0006357
2579.6	1.0006179
2578.6	1.0006253
2577.7	1.0006443
2576.7	1.0006605
2575.7	1.0006622
2574.8	1.0006418
2573.8	1.0006120
2572.8	1.0006063
2571.9	1.0006260
2570.9	1.0006343
2570.0	1.0006206
2569.0	1.0006064
2568.0	1.0006114
2567.1	1.0006365
2566.1	1.0006671
2565.1	1.0006896
2564.2	1.0006896
2563.2	1.0006713
2562.2	1.0006456
2561.3	1.0006244
2560.3	1.0006218
2559.3	1.0006285
2558.4	1.0006287
2557.4	1.0006222
2556.4	1.0006174
2555.5	1.0006208
2554.5	1.0006247
2553.6	1.0006244
2552.6	1.0006312
2551.6	1.0006425
2550.7	1.0006425
2549.7	1.0006386
2548.7	1.0006430
2547.8	1.0006509
2546.8	1.0006479
2545.8	1.0006337
2544.9	1.0006185
2543.9	1.0006179
2542.9	1.0006367
2542.0	1.0006431
2541.0	1.0006093
2540.1	1.0005642
2539.1	1.0005571
2538.1	1.0005805
2537.2	1.0005913
2536.2	1.0005746
2535.2	1.0005416
2534.3	1.0005120
2533.3	1.0004935
2532.3	1.0004843
2531.4	1.0004927
2530.4	1.0005056
2529.4	1.0004984
2528.5	1.0004900
2527.5	1.0005033
2526.6	1.0005102
2525.6	1.0004870
2524.6	1.0004654
2523.7	1.0004712
2522.7	1.0004895
2521.7	1.0005037
2520.8	1.0005156
2519.8	1.0005352
2518.8	1.0005689
2517.9	1.0006093
2516.9	1.0006304
2515.9	1.0006174
2515.0	1.0006008
2514.0	1.0006111
2513.1	1.0006318
2512.1	1.0006353
2511.1	1.0006225
2510.2	1.0006075
2509.2	1.0005976
2508.2	1.0006053
2507.3	1.0006324
2506.3	1.0006540
2505.3	1.0006540
2504.4	1.0006440
2503.4	1.0006419
2502.4	1.0006466
2501.5	1.0006318
2500.5	1.0006050
2499.6	1.0005939
2498.6	1.0005872
2497.6	1.0005807
2496.7	1.0005940
2495.7	1.0006109
2494.7	1.0006069
2493.8	1.0005958
2492.8	1.0005991
2491.8	1.0006046
2490.9	1.0005975
2489.9	1.0005896
2488.9	1.0005964
2488.0	1.0006101
2487.0	1.0006192
2486.1	1.0006318
2485.1	1.0006489
2484.1	1.0006524
2483.2	1.0006372
2482.2	1.0006227
2481.2	1.0006207
2480.3	1.0006204
2479.3	1.0006135
2478.3	1.0006185
2477.4	1.0006468
2476.4	1.0006728
2475.4	1.0006754
2474.5	1.0006642
2473.5	1.0006520
2472.6	1.0006384
2471.6	1.0006187
2470.6	1.0006016
2469.7	1.0006044
2468.7	1.0006268
2467.7	1.0006472
2466.8	1.0006469
2465.8	1.0006300
2464.8	1.0006207
2463.9	1.0006280
2462.9	1.0006299
2461.9	1.0006226
2461.0	1.0006229
2460.0	1.0006310
2459.1	1.0006335
2458.1	1.0006266
2457.1	1.0006217
2456.2	1.0006273
2455.2	1.0006436
2454.2	1.0006547
2453.3	1.0006465
2452.3	1.0006347
2451.3	1.0006353
2450.4	1.0006367
2449.4	1.0006243
2448.4	1.0006125
2447.5	1.0006207
2446.5	1.0006334
2445.6	1.0006330
2444.6	1.0006320
2443.6	1.0006437
2442.7	1.0006590
2441.7	1.0006618
2440.7	1.0006448
2439.8	1.0006206
2438.8	1.0006056
2437.8	1.0006031
2436.9	1.0006062
2435.9	1.0005984
2434.9	1.0005819
2434.0	1.0005840
2433.0	1.0006154
2432.1	1.0006506
2431.1	1.0006521
2430.1	1.0006181
2429.2	1.0005921
2428.2	1.0006003
2427.2	1.0006200
2426.3	1.0006292
2425.3	1.0006272
2424.3	1.0006156
2423.4	1.0006057
2422.4	1.0006112
2421.4	1.0006242
2420.5	1.0006347
2419.5	1.0006461
2418.5	1.0006467
2417.6	1.0006298
2416.6	1.0006148
2415.7	1.0006168
2414.7	1.0006309
2413.7	1.0006419
2412.8	1.0006399
2411.8	1.0006236
2410.8	1.0006068
2409.9	1.0006148
2408.9	1.0006469
2407.9	1.0006684
2407.0	1.0006591
2406.0	1.0006436
2405.0	1.0006466
2404.1	1.0006573
2403.1	1.0006512
2402.2	1.0006219
2401.2	1.0005862
2400.2	1.0005671
2399.3	1.0005724
2398.3	1.0005928
2397.3	1.0006157
2396.4	1.0006287
2395.4	1.0006264
2394.4	1.0006229
2393.5	1.0006247
2392.5	1.0006227
2391.5	1.0006117
2390.6	1.0005958
2389.6	1.0005827
2388.7	1.0005797
2387.7	1.0005814
2386.7	1.0005858
2385.8	1.0006038
2384.8	1.0006232
2383.8	1.0006161
2382.9	1.0005963
2381.9	1.0005982
2380.9	1.0006181
2380.0	1.0006262
2379.0	1.0006045
2378.0	1.0005729
2377.1	1.0005722
2376.1	1.0005959
2375.2	1.0006101
2374.2	1.0006156
2373.2	1.0006223
2372.3	1.0006193
2371.3	1.0005939
2370.3	1.0005685
2369.4	1.0005733
2368.4	1.0005934
2367.4	1.0006034
2366.5	1.0006037
2365.5	1.0006024
2364.5	1.0006027
2363.6	1.0006000
2362.6	1.0005915
2361.7	1.0005858
2360.7	1.0005844
2359.7	1.0005794
2358.8	1.0005807
2357.8	1.0006026
2356.8	1.0006227
2355.9	1.0006230
2354.9	1.0006171
2353.9	1.0006074
2353.0	1.0005927
2352.0	1.0005888
2351.0	1.0005914
2350.1	1.0005901
2349.1	1.0005959
2348.2	1.0006095
2347.2	1.0006217
2346.2	1.0006351
2345.3	1.0006468
2344.3	1.0006386
2343.3	1.0006101
2342.4	1.0005876
2341.4	1.0005883
2340.4	1.0005990
2339.5	1.0005913
2338.5	1.0005683
2337.5	1.0005599
2336.6	1.0005711
2335.6	1.0005782
2334.7	1.0005742
2333.7	1.0005744
2332.7	1.0005797
2331.8	1.0005671
2330.8	1.0005407
2329.8	1.0005436
2328.9	1.0005592
2327.9	1.0005443
2326.9	1.0005279
2326.0	1.0005331
2325.0	1.0005354
2324.0	1.0005318
2323.1	1.0005362
2322.1	1.0005490
2321.2	1.0005648
2320.2	1.0005802
2319.2	1.0005903
2318.3	1.0006009
2317.3	1.0006084
2316.3	1.0005987
2315.4	1.0005839
2314.4	1.0005913
2313.4	1.0006150
2312.5	1.0006232
2311.5	1.0006177
2310.5	1.0006174
2309.6	1.0006200
2308.6	1.0006243
2307.7	1.0006249
2306.7	1.0006201
2305.7	1.0006136
2304.8	1.0005972
2303.8	1.0005863
2302.8	1.0006015
2301.9	1.0006231
2300.9	1.0006266
2299.9	1.0006161
2299.0	1.0006096
2298.0	1.0006093
2297.0	1.0006043
2296.1	1.0005924
2295.1	1.0005758
2294.2	1.0005631
2293.2	1.0005682
2292.2	1.0005956
2291.3	1.0006297
2290.3	1.0006435
2289.3	1.0006348
2288.4	1.0006191
2287.4	1.0005999
2286.4	1.0005797
2285.5	1.0005751
2284.5	1.0005958
2283.5	1.0006225
2282.6	1.0006310
2281.6	1.0006173
2280.7	1.0006022
2279.7	1.0006075
2278.7	1.0006199
2277.8	1.0006124
2276.8	1.0005777
2275.8	1.0005412
2274.9	1.0005383
2273.9	1.0005633
2272.9	1.0005826
2272.0	1.0005862
2271.0	1.0005852
2270.0	1.0005686
2269.1	1.0005285
2268.1	1.0005063
2267.1	1.0005252
2266.2	1.0005511
2265.2	1.0005612
2264.3	1.0005635
2263.3	1.0005646
2262.3	1.0005617
2261.4	1.0005406
2260.4	1.0005078
2259.4	1.0004976
2258.5	1.0004985
2257.5	1.0004843
2256.5	1.0004823
2255.6	1.0005183
2254.6	1.0005622
2253.6	1.0005786
2252.7	1.0005850
2251.7	1.0005922
2250.8	1.0005764
2249.8	1.0005586
2248.8	1.0005828
2247.9	1.0006164
2246.9	1.0006143
2245.9	1.0006099
2245.0	1.0006208
2244.0	1.0006202
2243.0	1.0006179
2242.1	1.0006164
2241.1	1.0005910
2240.1	1.0005581
2239.2	1.0005536
2238.2	1.0005691
2237.3	1.0005730
2236.3	1.0005707
2235.3	1.0005835
2234.4	1.0006062
2233.4	1.0006189
2232.4	1.0006093
2231.5	1.0005844
2230.5	1.0005759
2229.5	1.0005934
2228.6	1.0006168
2227.6	1.0006338
2226.6	1.0006462
2225.7	1.0006533
2224.7	1.0006474
2223.8	1.0006360
2222.8	1.0006281
2221.8	1.0006107
2220.9	1.0005903
2219.9	1.0005834
2218.9	1.0005842
2218.0	1.0005831
2217.0	1.0005772
2216.0	1.0005739
2215.1	1.0005848
2214.1	1.0006051
2213.1	1.0006214
2212.2	1.0006281
2211.2	1.0006307
2210.3	1.0006332
2209.3	1.0006254
2208.3	1.0006018
2207.4	1.0005767
2206.4	1.0005580
2205.4	1.0005485
2204.5	1.0005616
2203.5	1.0005887
2202.5	1.0005963
2201.6	1.0005907
2200.6	1.0005988
2199.6	1.0006130
2198.7	1.0006155
2197.7	1.0006003
2196.8	1.0005751
2195.8	1.0005636
2194.8	1.0005772
2193.9	1.0006003
2192.9	1.0006175
2191.9	1.0006211
2191.0	1.0006094
2190.0	1.0005969
2189.0	1.0005914
2188.1	1.0005810
2187.1	1.0005753
2186.1	1.0005907
2185.2	1.0006127
2184.2	1.0006225
2183.3	1.0006187
2182.3	1.0006036
2181.3	1.0005865
2180.4	1.0005862
2179.4	1.0006021
2178.4	1.0006047
2177.5	1.0005894
2176.5	1.0005877
2175.5	1.0006019
2174.6	1.0006076
2173.6	1.0006076
2172.6	1.0006055
2171.7	1.0005927
2170.7	1.0005774
2169.8	1.0005708
2168.8	1.0005713
2167.8	1.0005771
2166.9	1.0005805
2165.9	1.0005758
2164.9	1.0005721
2164.0	1.0005779
2163.0	1.0005955
2162.0	1.0006167
2161.1	1.0006210
2160.1	1.0006092
2159.1	1.0005996
2158.2	1.0005937
2157.2	1.0005832
2156.3	1.0005709
2155.3	1.0005634
2154.3	1.0005608
2153.4	1.0005749
2152.4	1.0006057
2151.4	1.0006179
2150.5	1.0005907
2149.5	1.0005538
2148.5	1.0005388
2147.6	1.0005468
2146.6	1.0005612
2145.6	1.0005655
2144.7	1.0005687
2143.7	1.0005800
2142.8	1.0005817
2141.8	1.0005701
2140.8	1.0005591
2139.9	1.0005643
2138.9	1.0005872
2137.9	1.0006016
2137.0	1.0005989
2136.0	1.0005994
2135.0	1.0006055
2134.1	1.0006012
2133.1	1.0005825
2132.1	1.0005648
2131.2	1.0005631
2130.2	1.0005794
2129.2	1.0005977
2128.3	1.0005914
2127.3	1.0005654
2126.4	1.0005574
2125.4	1.0005769
2124.4	1.0005926
2123.5	1.0005876
2122.5	1.0005741
2121.5	1.0005605
2120.6	1.0005542
2119.6	1.0005572
2118.6	1.0005555
2117.7	1.0005513
2116.7	1.0005634
2115.7	1.0005858
2114.8	1.0005945
2113.8	1.0005862
2112.9	1.0005713
2111.9	1.0005577
2110.9	1.0005581
2110.0	1.0005701
2109.0	1.0005661
2108.0	1.0005502
2107.1	1.0005505
2106.1	1.0005584
2105.1	1.0005543
2104.2	1.0005530
2103.2	1.0005602
2102.2	1.0005620
2101.3	1.0005621
2100.3	1.0005656
2099.4	1.0005651
2098.4	1.0005654
2097.4	1.0005665
2096.5	1.0005544
2095.5	1.0005345
2094.5	1.0005213
2093.6	1.0005145
2092.6	1.0005109
2091.6	1.0005023
2090.7	1.0004894
2089.7	1.0004967
2088.7	1.0005208
2087.8	1.0005244
2086.8	1.0005058
2085.9	1.0004970
2084.9	1.0005008
2083.9	1.0005001
2083.0	1.0004926
2082.0	1.0004858
2081.0	1.0004864
2080.1	1.0004908
2079.1	1.0004860
2078.1	1.0004771
2077.2	1.0004771
2076.2	1.0004835
2075.2	1.0004902
2074.3	1.0004897
2073.3	1.0004778
2072.4	1.0004604
2071.4	1.0004456
2070.4	1.0004437
2069.5	1.0004551
2068.5	1.0004671
2067.5	1.0004799
2066.6	1.0005026
2065.6	1.0005203
2064.6	1.0005147
2063.7	1.0005027
2062.7	1.0005146
2061.7	1.0005373
2060.8	1.0005391
2059.8	1.0005286
2058.9	1.0005205
2057.9	1.0005121
2056.9	1.0005058
2056.0	1.0004997
2055.0	1.0004894
2054.0	1.0004779
2053.1	1.0004821
2052.1	1.0005052
2051.1	1.0005231
2050.2	1.0005221
2049.2	1.0005102
2048.2	1.0004976
2047.3	1.0004972
2046.3	1.0005101
2045.4	1.0005257
2044.4	1.0005407
2043.4	1.0005538
2042.5	1.0005512
2041.5	1.0005289
2040.5	1.0005077
2039.6	1.0005054
2038.6	1.0005215
2037.6	1.0005381
2036.7	1.0005387
2035.7	1.0005264
2034.7	1.0005163
2033.8	1.0005105
2032.8	1.0005070
2031.9	1.0005136
2030.9	1.0005196
2029.9	1.0005078
2029.0	1.0004876
2028.0	1.0004781
2027.0	1.0004817
2026.1	1.0004919
2025.1	1.0005053
2024.1	1.0005111
2023.2	1.0005004
2022.2	1.0004816
2021.2	1.0004691
2020.3	1.0004693
2019.3	1.0004729
2018.4	1.0004811
2017.4	1.0004963
2016.4	1.0005064
2015.5	1.0005085
2014.5	1.0005122
2013.5	1.0005155
2012.6	1.0005111
2011.6	1.0005122
2010.6	1.0005280
2009.7	1.0005419
2008.7	1.0005405
2007.7	1.0005281
2006.8	1.0005150
2005.8	1.0005105
2004.9	1.0005138
2003.9	1.0005147
2002.9	1.0005155
2002.0	1.0005260
2001.0	1.0005343
2000.0	1.0005318
1999.1	1.0005324
1998.1	1.0005382
1997.1	1.0005375
1996.2	1.0005360
1995.2	1.0005403
1994.2	1.0005316
1993.3	1.0005115
1992.3	1.0005082
1991.3	1.0005144
1990.4	1.0005078
1989.4	1.0005004
1988.5	1.0004997
1987.5	1.0004992
1986.5	1.0005013
1985.6	1.0005072
1984.6	1.0005106
1983.6	1.0005035
1982.7	1.0005046
1981.7	1.0005106
1980.7	1.0004835
1979.8	1.0004483
1978.8	1.0004545
1977.8	1.0004797
1976.9	1.0004891
1975.9	1.0004939
1975.0	1.0005057
1974.0	1.0005165
1973.0	1.0005211
1972.1	1.0005229
1971.1	1.0005325
1970.1	1.0005481
1969.2	1.0005575
1968.2	1.0005653
1967.2	1.0005693
1966.3	1.0005662
1965.3	1.0005718
1964.3	1.0005761
1963.4	1.0005628
1962.4	1.0005544
1961.5	1.0005622
1960.5	1.0005620
1959.5	1.0005454
1958.6	1.0005311
1957.6	1.0005308
1956.6	1.0005375
1955.7	1.0005349
1954.7	1.0005246
1953.7	1.0005171
1952.8	1.0005149
1951.8	1.0005273
1950.8	1.0005561
1949.9	1.0005798
1948.9	1.0005790
1948.0	1.0005648
1947.0	1.0005548
1946.0	1.0005436
1945.1	1.0005369
1944.1	1.0005472
1943.1	1.0005600
1942.2	1.0005591
1941.2	1.0005531
1940.2	1.0005579
1939.3	1.0005563
1938.3	1.0005369
1937.3	1.0005287
1936.4	1.0005411
1935.4	1.0005493
1934.5	1.0005457
1933.5	1.0005376
1932.5	1.0005332
1931.6	1.0005423
1930.6	1.0005609
1929.6	1.0005730
1928.7	1.0005683
1927.7	1.0005571
1926.7	1.0005560
1925.8	1.0005560
1924.8	1.0005474
1923.8	1.0005417
1922.9	1.0005364
1921.9	1.0005267
1921.0	1.0005209
1920.0	1.0005212
1919.0	1.0005180
1918.1	1.0004988
1917.1	1.0004612
1916.1	1.0004303
1915.2	1.0004306
1914.2	1.0004488
1913.2	1.0004537
1912.3	1.0004413
1911.3	1.0004278
1910.3	1.0004202
1909.4	1.0004209
1908.4	1.0004406
1907.5	1.0004752
1906.5	1.0004961
1905.5	1.0004913
1904.6	1.0004886
1903.6	1.0005109
1902.6	1.0005437
1901.7	1.0005597
1900.7	1.0005575
1899.7	1.0005562
1898.8	1.0005602
1897.8	1.0005597
1896.8	1.0005485
1895.9	1.0005308
1894.9	1.0005206
1894.0	1.0005161
1893.0	1.0005047
1892.0	1.0004948
1891.1	1.0005085
1890.1	1.0005362
1889.1	1.0005486
1888.2	1.0005450
1887.2	1.0005331
1886.2	1.0005176
1885.3	1.0005172
1884.3	1.0005262
1883.3	1.0005243
1882.4	1.0005141
1881.4	1.0005013
1880.5	1.0004867
1879.5	1.0004778
1878.5	1.0004666
1877.6	1.0004512
1876.6	1.0004454
1875.6	1.0004468
1874.7	1.0004451
1873.7	1.0004404
1872.7	1.0004334
1871.8	1.0004295
1870.8	1.0004376
1869.8	1.0004488
1868.9	1.0004609
1867.9	1.0004812
1867.0	1.0004847
1866.0	1.0004599
1865.0	1.0004371
1864.1	1.0004265
1863.1	1.0004240
1862.1	1.0004332
1861.2	1.0004445
1860.2	1.0004555
1859.2	1.0004715
1858.3	1.0004783
1857.3	1.0004754
1856.3	1.0004760
1855.4	1.0004709
1854.4	1.0004718
1853.5	1.0004973
1852.5	1.0005170
1851.5	1.0005091
1850.6	1.0005022
1849.6	1.0005126
1848.6	1.0005200
1847.7	1.0005178
1846.7	1.0005274
1845.7	1.0005671
1844.8	1.0006081
1843.8	1.0005970
1842.8	1.0005509
1841.9	1.0005256
1840.9	1.0005250
1839.9	1.0005206
1839.0	1.0005141
1838.0	1.0005236
1837.1	1.0005320
1836.1	1.0005186
1835.1	1.0005037
1834.2	1.0005131
1833.2	1.0005389
1832.2	1.0005549
1831.3	1.0005583
1830.3	1.0005509
1829.3	1.0005258
1828.4	1.0005068
1827.4	1.0005231
1826.4	1.0005575
1825.5	1.0005736
1824.5	1.0005602
1823.6	1.0005376
1822.6	1.0005271
1821.6	1.0005269
1820.7	1.0005281
1819.7	1.0005250
1818.7	1.0005182
1817.8	1.0005130
1816.8	1.0005199
1815.8	1.0005366
1814.9	1.0005329
1813.9	1.0005140
1812.9	1.0005177
1812.0	1.0005336
1811.0	1.0005318
1810.1	1.0005113
1809.1	1.0004976
1808.1	1.0005134
1807.2	1.0005403
1806.2	1.0005460
1805.2	1.0005336
1804.3	1.0005304
1803.3	1.0005479
1802.3	1.0005622
1801.4	1.0005584
1800.4	1.0005537
1799.4	1.0005573
1798.5	1.0005559
1797.5	1.0005442
1796.6	1.0005352
1795.6	1.0005389
1794.6	1.0005552
1793.7	1.0005765
1792.7	1.0005902
1791.7	1.0005851
1790.8	1.0005646
1789.8	1.0005385
1788.8	1.0005162
1787.9	1.0005126
1786.9	1.0005264
1785.9	1.0005261
1785.0	1.0004969
1784.0	1.0004719
1783.1	1.0004903
1782.1	1.0005441
1781.1	1.0005779
1780.2	1.0005556
1779.2	1.0005138
1778.2	1.0005068
1777.3	1.0005403
1776.3	1.0005707
1775.3	1.0005732
1774.4	1.0005940
1773.4	1.0006491
1772.4	1.0006659
1771.5	1.0006175
1770.5	1.0005596
1769.6	1.0005348
1768.6	1.0005306
1767.6	1.0005096
1766.7	1.0004858
1765.7	1.0004929
1764.7	1.0005032
1763.8	1.0004992
1762.8	1.0005130
1761.8	1.0005273
1760.9	1.0005039
1759.9	1.0004609
1758.9	1.0004245
1758.0	1.0004106
1757.0	1.0004228
1756.1	1.0004295
1755.1	1.0004141
1754.1	1.0004088
1753.2	1.0004483
1752.2	1.0005106
1751.2	1.0005261
1750.3	1.0004922
1749.3	1.0004679
1748.3	1.0004615
1747.4	1.0004432
1746.4	1.0004101
1745.4	1.0003874
1744.5	1.0003926
1743.5	1.0004098
1742.6	1.0004272
1741.6	1.0004550
1740.6	1.0004907
1739.7	1.0005085
1738.7	1.0005012
1737.7	1.0004966
1736.8	1.0005226
1735.8	1.0005956
1734.8	1.0006944
1733.9	1.0007200
1732.9	1.0006371
1731.9	1.0005546
1731.0	1.0005429
1730.0	1.0005500
1729.1	1.0005220
1728.1	1.0004886
1727.1	1.0004958
1726.2	1.0005137
1725.2	1.0005026
1724.2	1.0004879
1723.3	1.0004934
1722.3	1.0005039
1721.3	1.0005195
1720.4	1.0005565
1719.4	1.0006238
1718.4	1.0007057
1717.5	1.0007339
1716.5	1.0006815
1715.6	1.0006137
1714.6	1.0005671
1713.6	1.0005333
1712.7	1.0005152
1711.7	1.0005193
1710.7	1.0005344
1709.8	1.0005379
1708.8	1.0005279
1707.8	1.0005233
1706.9	1.0005300
1705.9	1.0005310
1704.9	1.0005231
1704.0	1.0005208
1703.0	1.0005355
1702.0	1.0006164
1701.1	1.0007595
1700.1	1.0008249
1699.2	1.0007434
1698.2	1.0006571
1697.2	1.0007069
1696.3	1.0008036
1695.3	1.0007557
1694.3	1.0006144
1693.4	1.0005373
1692.4	1.0005120
1691.4	1.0004885
1690.5	1.0004750
1689.5	1.0004755
1688.5	1.0004835
1687.6	1.0004989
1686.6	1.0005708
1685.7	1.0007187
1684.7	1.0008030
1683.7	1.0007204
1682.8	1.0005962
1681.8	1.0005463
1680.8	1.0005360
1679.9	1.0005108
1678.9	1.0004793
1677.9	1.0004795
1677.0	1.0005288
1676.0	1.0005953
1675.0	1.0006102
1674.1	1.0005609
1673.1	1.0005199
1672.2	1.0005276
1671.2	1.0005510
1670.2	1.0005608
1669.3	1.0005519
1668.3	1.0005269
1667.3	1.0005051
1666.4	1.0004992
1665.4	1.0005050
1664.4	1.0005294
1663.5	1.0005600
1662.5	1.0005531
1661.5	1.0005099
1660.6	1.0004712
1659.6	1.0004526
1658.7	1.0004510
1657.7	1.0004605
1656.7	1.0004796
1655.8	1.0005318
1654.8	1.0006694
1653.8	1.0008680
1652.9	1.0009449
1651.9	1.0008098
1650.9	1.0006388
1650.0	1.0005690
1649.0	1.0005602
1648.0	1.0005698
1647.1	1.0006059
1646.1	1.0006247
1645.2	1.0005763
1644.2	1.0005112
1643.2	1.0004872
1642.3	1.0004803
1641.3	1.0004613
1640.3	1.0004394
1639.4	1.0004283
1638.4	1.0004333
1637.4	1.0004686
1636.5	1.0005138
1635.5	1.0004779
1634.5	1.0003412
1633.6	1.0002018
1632.6	1.0001062
1631.7	1.0000182
1630.7	0.9999218
1629.7	0.9998545
1628.8	0.9998387
1627.8	0.9998279
1626.8	0.9997813
1625.9	0.9997196
1624.9	0.9996650
1623.9	0.9996065
1623.0	0.9995571
1622.0	0.9995367
1621.0	0.9995111
1620.1	0.9994504
1619.1	0.9994047
1618.2	0.9994353
1617.2	0.9994814
1616.2	0.9994182
1615.3	0.9992565
1614.3	0.9990992
1613.3	0.9989757
1612.4	0.9988580
1611.4	0.9987488
1610.4	0.9986886
1609.5	0.9986908
1608.5	0.9987284
1607.5	0.9987641
1606.6	0.9987767
1605.6	0.9987881
1604.7	0.9988238
1603.7	0.9988566
1602.7	0.9988636
1601.8	0.9988664
1600.8	0.9988832
1599.8	0.9989221
1598.9	0.9989901
1597.9	0.9990824
1596.9	0.9991910
1596.0	0.9993116
1595.0	0.9994328
1594.0	0.9995365
1593.1	0.9996310
1592.1	0.9997355
1591.2	0.9998334
1590.2	0.9999068
1589.2	0.9999731
1588.3	1.0000266
1587.3	1.0000491
1586.3	1.0000679
1585.4	1.0000995
1584.4	1.0001187
1583.4	1.0001158
1582.5	1.0001216
1581.5	1.0001552
1580.5	1.0001878
1579.6	1.0002049
1578.6	1.0002478
1577.7	1.0003566
1576.7	1.0004644
1575.7	1.0004501
1574.8	1.0003507
1573.8	1.0002878
1572.8	1.0002729
1571.9	1.0002795
1570.9	1.0003088
1569.9	1.0003432
1569.0	1.0003538
1568.0	1.0003384
1567.0	1.0003251
1566.1	1.0003325
1565.1	1.0003445
1564.1	1.0003566
1563.2	1.0003947
1562.2	1.0004834
1561.3	1.0006185
1560.3	1.0007529
1559.3	1.0008267
1558.4	1.0007988
1557.4	1.0006772
1556.4	1.0005606
1555.5	1.0005347
1554.5	1.0005496
1553.5	1.0005103
1552.6	1.0004362
1551.6	1.0004045
1550.6	1.0004160
1549.7	1.0004181
1548.7	1.0003920
1547.8	1.0003706
1546.8	1.0003749
1545.8	1.0003881
1544.9	1.0003936
1543.9	1.0004042
1542.9	1.0004472
1542.0	1.0005062
1541.0	1.0005599
1540.0	1.0006036
1539.1	1.0005577
1538.1	1.0003778
1537.1	1.0001751
1536.2	1.0000638
1535.2	1.0000277
1534.3	0.9999639
1533.3	0.9998251
1532.3	0.9996647
1531.4	0.9995195
1530.4	0.9993787
1529.4	0.9992488
1528.5	0.9991316
1527.5	0.9990211
1526.5	0.9989329
1525.6	0.9988382
1524.6	0.9986801
1523.6	0.9984843
1522.7	0.9982913
1521.7	0.9980475
1520.8	0.9976709
1519.8	0.9971769
1518.8	0.9966186
1517.9	0.9959509
1516.9	0.9951143
1515.9	0.9941533
1515.0	0.9931707
1514.0	0.9922795
1513.0	0.9915789
1512.1	0.9911212
1511.1	0.9909284
1510.1	0.9909312
1509.2	0.9909164
1508.2	0.9907849
1507.3	0.9906769
1506.3	0.9906385
1505.3	0.9905578
1504.4	0.9904497
1503.4	0.9904400
1502.4	0.9906079
1501.5	0.9909921
1500.5	0.9916201
1499.5	0.9924737
1498.6	0.9934675
1497.6	0.9944891
1496.6	0.9954546
1495.7	0.9962993
1494.7	0.9969961
1493.8	0.9975834
1492.8	0.9980955
1491.8	0.9985322
1490.9	0.9988843
1489.9	0.9991381
1488.9	0.9993010
1488.0	0.9994037
1487.0	0.9994544
1486.0	0.9994461
1485.1	0.9993902
1484.1	0.9993038
1483.1	0.9992033
1482.2	0.9991184
1481.2	0.9990877
1480.3	0.9991016
1479.3	0.9990740
1478.3	0.9989604
1477.4	0.9988433
1476.4	0.9988095
1475.4	0.9988415
1474.5	0.9988872
1473.5	0.9988981
1472.5	0.9988146
1471.6	0.9986652
1470.6	0.9985834
1469.6	0.9986286
1468.7	0.9987366
1467.7	0.9988560
1466.8	0.9989865
1465.8	0.9991192
1464.8	0.9992063
1463.9	0.9991969
1462.9	0.9990888
1461.9	0.9989535
1461.0	0.9989247
1460.0	0.9990330
1459.0	0.9991607
1458.1	0.9992324
1457.1	0.9992106
1456.1	0.9990692
1455.2	0.9989078
1454.2	0.9988486
1453.3	0.9988871
1452.3	0.9989639
1451.3	0.9990722
1450.4	0.9992030
1449.4	0.9992929
1448.4	0.9993089
1447.5	0.9992883
1446.5	0.9992800
1445.5	0.9993125
1444.6	0.9993863
1443.6	0.9994706
1442.6	0.9995614
1441.7	0.9996991
1440.7	0.9998640
1439.8	0.9999933
1438.8	1.0001113
1437.8	1.0002538
1436.9	1.0003445
1435.9	1.0003326
1434.9	1.0002992
1434.0	1.0002997
1433.0	1.0003242
1432.0	1.0003778
1431.1	1.0004412
1430.1	1.0004766
1429.1	1.0004803
1428.2	1.0004549
1427.2	1.0004148
1426.3	1.0003966
1425.3	1.0004100
1424.3	1.0004191
1423.4	1.0003968
1422.4	1.0003713
1421.4	1.0003891
1420.5	1.0004580
1419.5	1.0005157
1418.5	1.0004926
1417.6	1.0004264
1416.6	1.0003773
1415.6	1.0003417
1414.7	1.0003220
1413.7	1.0003173
1412.7	1.0003035
1411.8	1.0002760
1410.8	1.0002513
1409.9	1.0002460
1408.9	1.0002571
1407.9	1.0002577
1407.0	1.0002455
1406.0	1.0002444
1405.0	1.0002463
1404.1	1.0002321
1403.1	1.0002054
1402.1	1.0001833
1401.2	1.0001866
1400.2	1.0002135
1399.2	1.0002369
1398.3	1.0002347
1397.3	1.0002170
1396.4	1.0002179
1395.4	1.0002469
1394.4	1.0002699
1393.5	1.0002545
1392.5	1.0002290
1391.5	1.0002412
1390.6	1.0002687
1389.6	1.0002569
1388.6	1.0002185
1387.7	1.0001999
1386.7	1.0001820
1385.7	1.0001168
1384.8	1.0000091
1383.8	0.9998923
1382.9	0.9997672
1381.9	0.9996248
1380.9	0.9994807
1380.0	0.9993284
1379.0	0.9991417
1378.0	0.9989288
1377.1	0.9987295
1376.1	0.9985745
1375.1	0.9984589
1374.2	0.9983655
1373.2	0.9982966
1372.2	0.9982591
1371.3	0.9982258
1370.3	0.9981581
1369.4	0.9980661
1368.4	0.9979957
1367.4	0.9979771
1366.5	0.9980048
1365.5	0.9980608
1364.5	0.9981390
1363.6	0.9982467
1362.6	0.9983826
1361.6	0.9985261
1360.7	0.9986777
1359.7	0.9988399
1358.7	0.9989864
1357.8	0.9991155
1356.8	0.9992431
1355.9	0.9993760
1354.9	0.9995058
1353.9	0.9996039
1353.0	0.9996710
1352.0	0.9997526
1351.0	0.9998571
1350.1	0.9999402
1349.1	0.9999855
1348.1	1.0000166
1347.2	1.0000503
1346.2	1.0000914
1345.2	1.0001323
1344.3	1.0001658
1343.3	1.0001915
1342.4	1.0002066
1341.4	1.0002321
1340.4	1.0002791
1339.5	1.0003284
1338.5	1.0003729
1337.5	1.0003897
1336.6	1.0003529
1335.6	1.0003010
1334.6	1.0002838
1333.7	1.0003078
1332.7	1.0003541
1331.7	1.0003965
1330.8	1.0004135
1329.8	1.0004096
1328.9	1.0004177
1327.9	1.0004338
1326.9	1.0004267
1326.0	1.0004025
1325.0	1.0003716
1324.0	1.0003419
1323.1	1.0003449
1322.1	1.0003649
1321.1	1.0003570
1320.2	1.0003353
1319.2	1.0003195
1318.2	1.0003026
1317.3	1.0002888
1316.3	1.0002785
1315.4	1.0002517
1314.4	1.0001928
1313.4	1.0001187
1312.5	1.0000677
1311.5	1.0000423
1310.5	1.0000149
1309.6	0.9999905
1308.6	0.9999770
1307.6	0.9999561
1306.7	0.9999269
1305.7	0.9999058
1304.7	0.9999011
1303.8	0.9999036
1302.8	0.9998943
1301.9	0.9998655
1300.9	0.9998390
1299.9	0.9998524
1299.0	0.9998841
1298.0	0.9998854
1297.0	0.9998773
1296.1	0.9998930
1295.1	0.9999296
1294.1	0.9999749
1293.2	0.9999960
1292.2	0.9999824
1291.2	0.9999775
1290.3	0.9999904
1289.3	0.9999809
1288.4	0.9999429
1287.4	0.9998969
1286.4	0.9998469
1285.5	0.9997874
1284.5	0.9997106
1283.5	0.9996049
1282.6	0.9994726
1281.6	0.9993228
1280.6	0.9991290
1279.7	0.9988526
1278.7	0.9984721
1277.7	0.9979607
1276.8	0.9972833
1275.8	0.9963959
1274.8	0.9952700
1273.9	0.9939580
1272.9	0.9925881
1272.0	0.9912978
1271.0	0.9902322
1270.0	0.9895188
1269.1	0.9892058
1268.1	0.9892460
1267.1	0.9894429
1266.2	0.9894997
1265.2	0.9893391
1264.2	0.9892295
1263.3	0.9893469
1262.3	0.9895032
1261.3	0.9895605
1260.4	0.9896860
1259.4	0.9900518
1258.5	0.9906733
1257.5	0.9915177
1256.5	0.9925145
1255.6	0.9935530
1254.6	0.9945427
1253.6	0.9954431
1252.7	0.9962517
1251.7	0.9969302
1250.7	0.9974247
1249.8	0.9977470
1248.8	0.9979606
1247.8	0.9981067
1246.9	0.9981684
1245.9	0.9981426
1245.0	0.9980645
1244.0	0.9979085
1243.0	0.9976177
1242.1	0.9972060
1241.1	0.9967166
1240.1	0.9961475
1239.2	0.9954629
1238.2	0.9946542
1237.2	0.9938154
1236.3	0.9930924
1235.3	0.9925765
1234.3	0.9923056
1233.4	0.9922800
1232.4	0.9924140
1231.5	0.9925515
1230.5	0.9926184
1229.5	0.9926333
1228.6	0.9925719
1227.6	0.9924260
1226.6	0.9922810
1225.7	0.9922266
1224.7	0.9922997
1223.7	0.9925089
1222.8	0.9928594
1221.8	0.9933315
1220.8	0.9938241
1219.9	0.9942181
1218.9	0.9944904
1218.0	0.9947143
1217.0	0.9950149
1216.0	0.9954284
1215.1	0.9958534
1214.1	0.9961960
1213.1	0.9964220
1212.2	0.9965736
1211.2	0.9967237
1210.2	0.9968520
1209.3	0.9969155
1208.3	0.9969630
1207.3	0.9970608
1206.4	0.9971850
1205.4	0.9973219
1204.5	0.9975420
1203.5	0.9978604
1202.5	0.9982015
1201.6	0.9984995
1200.6	0.9987382
1199.6	0.9989410
1198.7	0.9991251
1197.7	0.9992657
1196.7	0.9993733
1195.8	0.9995102
1194.8	0.9996342
1193.8	0.9996625
1192.9	0.9996737
1191.9	0.9997420
1191.0	0.9997478
1190.0	0.9995946
1189.0	0.9993910
1188.1	0.9993071
1187.1	0.9993641
1186.1	0.9994287
1185.2	0.9994410
1184.2	0.9994553
1183.2	0.9994674
1182.3	0.9994160
1181.3	0.9992874
1180.3	0.9991806
1179.4	0.9992115
1178.4	0.9993149
1177.5	0.9993659
1176.5	0.9993852
1175.5	0.9994191
1174.6	0.9994216
1173.6	0.9993927
1172.6	0.9994227
1171.7	0.9995464
1170.7	0.9996809
1169.7	0.9997320
1168.8	0.9997228
1167.8	0.9997509
1166.8	0.9998054
1165.9	0.9998263
1164.9	0.9998822
1164.0	0.9999970
1163.0	1.0000547
1162.0	1.0000403
1161.1	1.0000136
1160.1	0.9999743
1159.1	0.9999540
1158.2	1.0000105
1157.2	1.0000936
1156.2	1.0001371
1155.3	1.0002222
1154.3	1.0003424
1153.3	1.0003140
1152.4	1.0001903
1151.4	1.0001868
1150.5	1.0002611
1149.5	1.0002401
1148.5	1.0001248
1147.6	1.0000863
1146.6	1.0001781
1145.6	1.0002406
1144.7	1.0002434
1143.7	1.0002936
1142.7	1.0003717
1141.8	1.0004358
1140.8	1.0004926
1139.8	1.0004902
1138.9	1.0003859
1137.9	1.0002692
1136.9	1.0002747
1136.0	1.0003868
1135.0	1.0004930
1134.1	1.0005400
1133.1	1.0005397
1132.1	1.0005089
1131.2	1.0004119
1130.2	1.0002458
1129.2	1.0001224
1128.3	1.0001348
1127.3	1.0002480
1126.3	1.0003166
1125.4	1.0002300
1124.4	1.0000380
1123.4	0.9998311
1122.5	0.9996660
1121.5	0.9995463
1120.6	0.9993268
1119.6	0.9990113
1118.6	0.9988480
1117.7	0.9988586
1116.7	0.9988326
1115.7	0.9986908
1114.8	0.9985566
1113.8	0.9985526
1112.8	0.9986140
1111.9	0.9986444
1110.9	0.9986650
1109.9	0.9987037
1109.0	0.9987217
1108.0	0.9987575
1107.1	0.9989184
1106.1	0.9991729
1105.1	0.9994108
1104.2	0.9995738
1103.2	0.9996516
1102.2	0.9997029
1101.3	0.9998164
1100.3	0.9999887
1099.3	1.0000802
1098.4	1.0000818
1097.4	1.0002186
1096.4	1.0005113
1095.5	1.0006787
1094.5	1.0006375
1093.6	1.0005542
1092.6	1.0005114
1091.6	1.0005233
1090.7	1.0005754
1089.7	1.0005891
1088.7	1.0005263
1087.8	1.0004280
1086.8	1.0003562
1085.8	1.0003783
1084.9	1.0005144
1083.9	1.0006135
1082.9	1.0005952
1082.0	1.0005985
1081.0	1.0006316
1080.1	1.0006131
1079.1	1.0006009
1078.1	1.0006593
1077.2	1.0007563
1076.2	1.0007849
1075.2	1.0007108
1074.3	1.0006270
1073.3	1.0005795
1072.3	1.0005401
1071.4	1.0005313
1070.4	1.0006166
1069.4	1.0007607
1068.5	1.0008075
1067.5	1.0007117
1066.6	1.0006018
1065.6	1.0005555
1064.6	1.0005330
1063.7	1.0004848
1062.7	1.0004114
1061.7	1.0002967
1060.8	1.0000645
1059.8	0.9996923
1058.8	0.9992537
1057.9	0.9988933
1056.9	0.9987153
1055.9	0.9986874
1055.0	0.9986984
1054.0	0.9986306
1053.1	0.9984975
1052.1	0.9984002
1051.1	0.9983239
1050.2	0.9982351
1049.2	0.9981695
1048.2	0.9980957
1047.3	0.9979032
1046.3	0.9976608
1045.3	0.9975859
1044.4	0.9976793
1043.4	0.9978544
1042.4	0.9980938
1041.5	0.9983302
1040.5	0.9985394
1039.6	0.9986380
1038.6	0.9985418
1037.6	0.9984055
1036.7	0.9984158
1035.7	0.9985404
1034.7	0.9986020
1033.8	0.9986158
1032.8	0.9987538
1031.8	0.9988893
1030.9	0.9988219
1029.9	0.9986920
1028.9	0.9987178
1028.0	0.9988628
1027.0	0.9989542
1026.1	0.9989496
1025.1	0.9989572
1024.1	0.9990771
1023.2	0.9992962
1022.2	0.9995311
1021.2	0.9997344
1020.3	0.9997995
1019.3	0.9996763
1018.3	0.9996563
1017.4	0.9999223
1016.4	1.0002743
1015.4	1.0005431
1014.5	1.0005693
1013.5	1.0003277
1012.6	1.0001817
1011.6	1.0002897
1010.6	1.0003672
1009.7	1.0003042
1008.7	1.0002445
1007.7	1.0003210
1006.8	1.0005351
1005.8	1.0006058
1004.8	1.0004356
1003.9	1.0003146
1002.9	1.0003362
1001.9	1.0003700
1001.0	1.0004123
1000.0	1.0006510
999.1	1.0010066
998.1	1.0009041
997.1	1.0001574
996.2	0.9995486
995.2	0.9996789
994.2	0.9999663
993.3	0.9999366
992.3	1.0000811
991.3	1.0005054
990.4	1.0008363
989.4	1.0011907
988.4	1.0015243
987.5	1.0014461
986.5	1.0010120
985.5	1.0006529
984.6	1.0008940
983.6	1.0013715
982.7	1.0010692
981.7	1.0004787
980.7	1.0005738
979.8	1.0009443
978.8	1.0008172
977.8	1.0001749
976.9	0.9998150
975.9	0.9999327
974.9	0.9998539
974.0	0.9998863
973.0	1.0004627
972.0	1.0007451
971.1	1.0005767
970.1	1.0010260
969.2	1.0021166
968.2	1.0026716
967.2	1.0022889
966.3	1.0015582
965.3	1.0007775
964.3	1.0001111
963.4	1.0002882
962.4	1.0011638
961.4	1.0013012
960.5	1.0005878
959.5	1.0002456
958.5	1.0005630
957.6	1.0011200
956.6	1.0014808
955.7	1.0014910
954.7	1.0013334
953.7	1.0011243
952.8	1.0014323
951.8	1.0022289
950.8	1.0018388
949.9	1.0001515
948.9	0.9995582
947.9	1.0005087
947.0	1.0011035
946.0	1.0010045
945.0	1.0010245
944.1	1.0011195
943.1	1.0011531
942.2	1.0012107
941.2	1.0014827
940.2	1.0024884
939.3	1.0037347
938.3	1.0039182
937.3	1.0031742
936.4	1.0026147
935.4	1.0027642
934.4	1.0027022
933.5	1.0017557
932.5	1.0013019
931.5	1.0010026
930.6	0.9998148
929.6	0.9992193
928.7	0.9998422
927.7	1.0013118
926.7	1.0029256
925.8	1.0035727
924.8	1.0035204
923.8	1.0021493
922.9	0.9977749
921.9	0.9928219
920.9	0.9932412
920.0	0.9987189
919.0	1.0015750
918.0	0.9997346
917.1	0.9987245
916.1	1.0006043
915.2	1.0022323
914.2	1.0030245
913.2	1.0047586
912.3	1.0051467
911.3	1.0026000
910.3	1.0006002
909.4	1.0007889
908.4	1.0011114
907.4	1.0000054
906.5	0.9987895
905.5	0.9994557
904.5	1.0002292
903.6	1.0005022
902.6	1.0037049
901.7	1.0075901
900.7	1.0067911
899.7	1.0053079
898.8	1.0091308
897.8	1.0145226
896.8	1.0149798
895.9	1.0108384
894.9	1.0060571
893.9	1.0020633
893.0	0.9994611
892.0	0.9995496
891.0	1.0006245
890.1	1.0006524
889.1	1.0009836
888.2	1.0024811
887.2	1.0051980
886.2	1.0089822
885.3	1.0135094
884.3	1.0189589
883.3	1.0203702
882.4	1.0120015
881.4	0.9982491
880.4	0.9896125
879.5	0.9880989
878.5	0.9893060
877.5	0.9954325
876.6	1.0029541
875.6	1.0036329
874.7	0.9969068
873.7	0.9871119
872.7	0.9860917
871.8	0.9921173
870.8	0.9887850
869.8	0.9718672
868.9	0.9517958
867.9	0.9441666
866.9	0.9544762
866.0	0.9696129
865.0	0.9727988
864.0	0.9872277
863.1	1.0279760
862.1	1.0475160
861.2	1.0212839
860.2	1.0014392
859.2	1.0492439
858.3	1.1582266
857.3	1.2267047
856.3	1.0924709
855.4	0.8824023
854.4	0.8769688
853.4	1.0433671
852.5	1.0572540
851.5	0.9120861
850.5	0.8789568
849.6	1.0122350
848.6	1.1231613
847.6	1.1130466
846.7	1.0721834
845.7	1.0852112
844.8	1.2183635
843.8	1.3599031
842.8	1.4154125
841.9	1.4893562
840.9	1.3464501
839.9	1.0998235
839.0	1.0692025
838.0	1.1404984
837.0	1.0452889
836.1	1.1019897
835.1	1.9796884
834.1	2.2628481
833.2	0.6383544
832.2	0.0425123
831.3	-0.1561745
830.3	-0.2109001
829.3	-0.2606616
828.4	-0.1043798
827.4	0.3625428
826.4	0.7381546
825.5	0.6985871
824.5	0.3865979
823.5	0.1387897
822.6	0.1222462
821.6	0.3270817
820.6	0.5875769
819.7	0.7133859
818.7	0.6587391
817.8	0.5260490
816.8	0.3538149
815.8	0.2304387
814.9	0.3625120
813.9	0.8265061
812.9	1.1705306
812.0	0.7458940
811.0	0.2542590
810.0	0.1731576
809.1	0.2666532
808.1	0.3707826
807.1	0.3129282
806.2	0.1270153
805.2	-0.1159716
804.3	-0.1651638
803.3	0.2166226
802.3	0.6088240
801.4	0.6417903
800.4	0.5290217
799.4	0.5201595
798.5	0.5292209
797.5	0.6586811
796.5	0.9011252
795.6	0.8041089
794.6	0.6043060
793.6	0.5726404
792.7	0.5925497
791.7	0.5521175
790.8	0.5237929
789.8	0.5937643
788.8	0.7812970
787.9	0.8976741
786.9	0.7733198
785.9	0.6009089
785.0	0.5422043
784.0	0.5671599
783.0	0.6340923
782.1	0.6993474
781.1	0.8297614
780.1	1.0790584
779.2	1.5361956
778.2	1.9359818
777.3	1.0072069
776.3	0.4792325
775.3	0.3623301
774.4	0.2641051
773.4	0.0144139
772.4	0.0096096
771.5	0.0796003
770.5	0.1806833
769.5	0.5881891
768.6	1.4240706
767.6	2.7863936
766.6	7.5017610
765.7	4.3325400
764.7	0.3768108
763.8	0.4647858
762.8	0.5912971
761.8	0.4683361
760.9	0.4758658
759.9	0.8941059
758.9	1.3594317
758.0	1.5024930
757.0	1.3664570
756.0	1.0933986
755.1	1.1114156
754.1	1.1342967
753.1	0.8440600
752.2	0.6326308
751.2	0.6557875
750.3	0.7980362
749.3	0.8185208
748.3	0.5871495
747.4	0.3340703
746.4	0.4704007
745.4	0.7319720
744.5	0.7136722
743.5	0.5707017
742.5	0.5479829
741.6	0.7031668
740.6	0.7983784
739.6	0.6671417
738.7	0.3546835
737.7	0.0788455
736.8	0.1440679
735.8	0.4264902
734.8	0.7239978
733.9	1.1083510
732.9	1.5344471
731.9	1.4578617
731.0	0.8075666
730.0	0.5295053
729.0	0.5287696
728.1	0.6516378
727.1	0.7072144
726.1	0.7643215
725.2	1.1368613
724.2	1.1422234
723.3	0.6436214
722.3	0.5005522
721.3	0.6003939
720.4	0.9343059
719.4	1.1023614
718.4	0.8380690
717.5	0.7425818
716.5	0.7816525
715.5	0.7695355
714.6	0.7198649
713.6	0.6564653
712.6	0.5281203
711.7	0.2735065
710.7	0.1890582
709.7	0.3520003
708.8	0.5376745
707.8	0.5144297
706.9	0.3261696
705.9	0.2614867
704.9	0.2800402
704.0	0.2577096
703.0	0.2402159
702.0	0.2482181
701.1	0.1438377
700.1	0.1035976
699.1	0.4494430
698.2	0.6455550
697.2	0.4778608
696.2	0.3147170
695.3	0.3350633
694.3	0.5060992
693.4	0.5541945
692.4	0.4488456
691.4	0.4210863
690.5	0.6047263
689.5	0.9195972
688.5	1.0111123
687.6	0.7753443
686.6	0.5576622
685.6	0.3710873
684.7	0.2701999
683.7	0.3513530
682.7	0.5058717
681.8	0.5621156
680.8	0.5255554
679.9	0.5313287
678.9	0.5643054
677.9	0.4786008
677.0	0.3148079
676.0	0.2972830
675.0	0.4901316
674.1	0.8066792
673.1	1.1322732
672.1	1.3488282
671.2	1.4432801
670.2	1.2418215
669.2	0.8597527
668.3	0.5812967
667.3	0.4245633
666.4	0.3620194
665.4	0.3698384
664.4	0.3037226
663.5	0.2260093
662.5	0.3588898
661.5	0.5712264
660.6	0.2354952
659.6	0.0220695
658.6	0.0241112
657.7	0.2964886
656.7	0.7124995
655.7	0.7164143
654.8	0.7113712
653.8	0.4892000
652.9	0.1304075
651.9	0.1114832
650.9	2.8705008
650.0	-7.3028121
649.0	2.7751706
648.0	0.5392213
647.1	-0.0401852
646.1	0.0386864
645.1	0.3106384
644.2	0.9107584
643.2	-29.6719208
642.2	-155.0341644
641.3	3.1870100
640.3	0.8373584
639.4	0.3376477
638.4	0.5308989
637.4	0.6135280
636.5	0.4264840
635.5	0.4182379
634.5	0.7995470
633.6	1.0414910
632.6	0.5751661
631.6	0.2938233
630.7	0.6297704
629.7	1.0354388
628.7	1.8971372
627.8	15.1762981
626.8	2.1870317
625.9	-0.0458477
624.9	-0.2518069
623.9	-0.0971093
623.0	0.9718550
622.0	16.8401356
621.0	20.4865131
620.1	6.3451414
619.1	3.3586347
618.1	3.2915406
617.2	2.0654888
616.2	0.3157364
615.2	-0.2979609
614.3	-1.1737530
613.3	-2.1928360
612.4	3.1617255
611.4	10.3881540
610.4	16.4551754
609.5	66.0655212
608.5	-5.8225913
607.5	-1.0527821
606.6	28.4371281
605.6	1.7656623
604.6	1.1329929
603.7	0.7379262
602.7	0.4382677
601.7	0.6576568
600.8	0.7799981
599.8	0.7874640
598.9	0.8102355
597.9	0.8186105
596.9	0.7454676
596.0	0.5631440
595.0	0.4417565
594.0	0.5388101
593.1	0.9107510
592.1	0.8855486
591.1	0.4659362
590.2	0.2878625
589.2	0.2633907
588.2	0.2586713
587.3	0.2924769
586.3	0.6058177
585.4	1.1759369
584.4	1.1609927
583.4	0.8709512
582.5	0.8675336
581.5	0.7399250
580.5	0.5799655
579.6	0.4253087
578.6	0.2594246
577.6	0.1714907
576.7	0.1141509
575.7	0.0992383
574.7	0.2849224
573.8	0.3493382
572.8	0.2883743
571.9	0.2607096
570.9	0.2671495
569.9	0.2368759
569.0	0.2514159
568.0	0.3919115
567.0	0.5761806
566.1	0.5396866
565.1	0.3143192
564.1	0.2907978
563.2	0.4173181
562.2	0.5490059
561.2	0.5359092
560.3	0.4185576
559.3	0.3488716
558.3	0.3397568
557.4	0.2983774
556.4	0.3350126
555.5	0.5021122
554.5	0.5857946
553.5	0.6346260
552.6	0.7432035
551.6	0.8220522
550.6	0.8202655
549.7	0.8440741
548.7	0.8470040
547.7	0.7338530
546.8	0.6478484
545.8	0.6377081
544.8	0.6063258
543.9	0.4824991
542.9	0.4730832
542.0	0.7673835
541.0	1.1025512
540.0	0.8741184
539.1	0.4735114
538.1	0.3478795
537.1	0.2480632
536.2	0.1358185
535.2	0.1765990
534.2	0.3224472
533.3	0.5075393
532.3	0.6055245
531.3	0.5646296
530.4	0.5434208
529.4	0.6169823
528.5	0.6158687
527.5	0.5062453
526.5	0.5164145
525.6	0.6088919
524.6	0.5844648
523.6	0.5042143
522.7	0.6045238
521.7	0.7118630
520.7	0.6284797
519.8	0.4804439
518.8	0.4142419
517.8	0.4594357
516.9	0.5817425
515.9	0.7281403
515.0	0.6916022
514.0	0.5438896
513.0	0.5014851
512.1	0.5557979
511.1	0.6267433
510.1	0.6793202
509.2	0.6658587
508.2	0.6343070
507.2	0.6990008
506.3	0.7506766
505.3	0.6838301
504.3	0.6188480
503.4	0.6498466
502.4	0.7522411
501.5	0.7822340
500.5	0.6498672
499.5	0.5777676
498.6	0.6237983
497.6	0.6075969
496.6	0.4705152
495.7	0.3221630
494.7	0.3193750
493.7	0.4922571
492.8	0.6694661
491.8	0.7022666
490.8	0.6845456
489.9	0.6434364
488.9	0.5611036
488.0	0.5127987
487.0	0.5038614
486.0	0.5118121
485.1	0.5744373
484.1	0.6460531
483.1	0.6656361
482.2	0.6497986
481.2	0.5408530
480.2	0.4075047
479.3	0.3723711
478.3	0.4308922
477.3	0.5112240
476.4	0.6287154
475.4	0.7479902
474.5	0.7274733
473.5	0.6966900
472.5	0.7517274
471.6	0.6956414
470.6	0.5190205
469.6	0.3986919
468.7	0.4014782
467.7	0.4502745
466.7	0.4983301
465.8	0.5462281
464.8	0.5734176
463.8	0.5999985
462.9	0.6296228
461.9	0.6172935
461.0	0.5687214
460.0	0.5370283
459.0	0.5328175
458.1	0.5164455
457.1	0.4789305
456.1	0.4617025
455.2	0.4950559
454.2	0.5334666
453.2	0.5315776
452.3	0.5132216
451.3	0.5563608
450.3	0.6471113
449.4	0.6819347
448.4	0.6760310
447.5	0.6633219
446.5	0.6764951
445.5	0.7360892
444.6	0.6971835
443.6	0.6036085
442.6	0.5829831
441.7	0.5844580
440.7	0.5854861
439.7	0.5833392
438.8	0.5158206
437.8	0.4591262
436.8	0.4618345
435.9	0.4733750
434.9	0.4851131
434.0	0.4933446
433.0	0.4908090
432.0	0.5093897
431.1	0.5655314
430.1	0.6170707
429.1	0.6085226
428.2	0.5518820
427.2	0.4370028
426.2	0.3437091
425.3	0.3756713
424.3	0.4783369
423.3	0.5204786
422.4	0.5341313
421.4	0.6513862
420.4	0.8977535
419.5	1.0663776
418.5	1.2101088
417.6	1.3345281
416.6	1.2166399
415.6	0.8982178
414.7	0.5935108
413.7	0.4270538
412.7	0.4203063
411.8	0.4825421
410.8	0.5386593
409.8	0.5703983
408.9	0.5427029
407.9	0.4767824
406.9	0.5211157
406.0	0.7007363
405.0	0.7638891
404.1	0.6469364
403.1	0.5986636
402.1	0.6841310
401.2	0.7424769
400.2	0.6570891
399.2	0.4900702
398.3	0.3997394
397.3	0.4443853
396.3	0.5701360
395.4	0.6660658
394.4	0.6729559
393.4	0.6115153
392.5	0.4788108
391.5	0.3680212
390.6	0.4151692
389.6	0.5880136
388.6	0.7107344
387.7	0.7553768
386.7	0.7491912
385.7	0.7010158
384.8	0.6626295
383.8	0.6163348
382.8	0.5354065
381.9	0.4769060
380.9	0.4884358
379.9	0.5235496
379.0	0.5345284
378.0	0.5929564
377.1	0.6974371
376.1	0.7315366
375.1	0.7144971
374.2	0.7205700
373.2	0.7061162
372.2	0.6795931
371.3	0.6841776
370.3	0.6796772
369.3	0.6593849
