3997.9	0.0000459
3996.0	0.0000334
3994.1	0.0000273
3992.1	0.0000311
3990.2	0.0000210
3988.3	-0.0000206
3986.3	-0.0000476
3984.4	-0.0000172
3982.5	0.0000135
3980.6	-0.0000009
3978.6	-0.0000219
3976.7	-0.0000291
3974.8	-0.0000325
3972.8	-0.0000382
3970.9	-0.0000415
3969.0	-0.0000167
3967.1	0.0000204
3965.1	0.0000282
3963.2	0.0000174
3961.3	0.0000148
3959.3	0.0000158
3957.4	-0.0000012
3955.5	-0.0000236
3953.6	-0.0000109
3951.6	0.0000163
3949.7	0.0000117
3947.8	-0.0000025
3945.8	-0.0000003
3943.9	-0.0000043
3942.0	-0.0000080
3940.1	0.0000072
3938.1	0.0000219
3936.2	0.0000304
3934.3	0.0000394
3932.3	0.0000479
3930.4	0.0000548
3928.5	0.0000547
3926.6	0.0000434
3924.6	0.0000255
3922.7	0.0000081
3920.8	-0.0000022
3918.8	0.0000084
3916.9	0.0000275
3915.0	0.0000175
3913.1	-0.0000015
3911.1	0.0000181
3909.2	0.0000647
3907.3	0.0000944
3905.3	0.0000951
3903.4	0.0000766
3901.5	0.0000555
3899.6	0.0000534
3897.6	0.0000561
3895.7	0.0000374
3893.8	0.0000199
3891.8	0.0000265
3889.9	0.0000352
3888.0	0.0000258
3886.1	0.0000068
3884.1	-0.0000035
3882.2	0.0000035
3880.3	0.0000062
3878.3	0.0000012
3876.4	0.0000034
3874.5	0.0000015
3872.6	0.0000094
3870.6	0.0000415
3868.7	0.0000488
3866.8	0.0000120
3864.8	-0.0000141
3862.9	-0.0000028
3861.0	0.0000124
3859.1	0.0000093
3857.1	0.0000072
3855.2	0.0000145
3853.3	0.0000065
3851.3	-0.0000111
3849.4	-0.0000036
3847.5	0.0000202
3845.6	0.0000274
3843.6	0.0000157
3841.7	0.0000113
3839.8	0.0000253
3837.8	0.0000395
3835.9	0.0000438
3834.0	0.0000393
3832.1	0.0000138
3830.1	-0.0000160
3828.2	-0.0000153
3826.3	-0.0000000
3824.3	0.0000092
3822.4	0.0000235
3820.5	0.0000266
3818.6	0.0000018
3816.6	-0.0000115
3814.7	0.0000102
3812.8	0.0000216
3810.8	0.0000021
3808.9	-0.0000141
3807.0	-0.0000109
3805.1	0.0000115
3803.1	0.0000405
3801.2	0.0000403
3799.3	0.0000079
3797.3	-0.0000129
3795.4	-0.0000050
3793.5	0.0000096
3791.6	0.0000180
3789.6	0.0000199
3787.7	0.0000185
3785.8	0.0000153
3783.8	0.0000045
3781.9	-0.0000064
3780.0	-0.0000050
3778.1	-0.0000086
3776.1	-0.0000231
3774.2	-0.0000221
3772.3	-0.0000111
3770.3	-0.0000153
3768.4	-0.0000187
3766.5	-0.0000041
3764.6	0.0000147
3762.6	0.0000272
3760.7	0.0000279
3758.8	0.0000070
3756.8	-0.0000211
3754.9	-0.0000234
3753.0	0.0000007
3751.1	0.0000233
3749.1	0.0000220
3747.2	0.0000030
3745.3	0.0000013
3743.3	0.0000363
3741.4	0.0000763
3739.5	0.0000710
3737.6	0.0000257
3735.6	0.0000007
3733.7	0.0000139
3731.8	0.0000310
3729.8	0.0000417
3727.9	0.0000462
3726.0	0.0000337
3724.1	0.0000204
3722.1	0.0000314
3720.2	0.0000657
3718.3	0.0001061
3716.3	0.0001223
3714.4	0.0000838
3712.5	0.0000123
3710.6	-0.0000255
3708.6	-0.0000261
3706.7	-0.0000326
3704.8	-0.0000293
3702.8	-0.0000040
3700.9	0.0000115
3699.0	0.0000124
3697.1	0.0000139
3695.1	0.0000210
3693.2	0.0000400
3691.3	0.0000666
3689.3	0.0000721
3687.4	0.0000570
3685.5	0.0000558
3683.6	0.0000503
3681.6	0.0000048
3679.7	-0.0000434
3677.8	-0.0000495
3675.8	-0.0000269
3673.9	0.0000085
3672.0	0.0000448
3670.1	0.0000605
3668.1	0.0000546
3666.2	0.0000318
3664.3	-0.0000074
3662.3	-0.0000402
3660.4	-0.0000457
3658.5	-0.0000337
3656.6	-0.0000203
3654.6	-0.0000128
3652.7	-0.0000053
3650.8	0.0000169
3648.8	0.0000427
3646.9	0.0000550
3645.0	0.0000575
3643.1	0.0000381
3641.1	-0.0000011
3639.2	-0.0000137
3637.3	0.0000093
3635.3	0.0000197
3633.4	-0.0000068
3631.5	-0.0000466
3629.6	-0.0000626
3627.6	-0.0000325
3625.7	0.0000140
3623.8	0.0000239
3621.8	0.0000062
3619.9	0.0000040
3618.0	0.0000081
3616.1	-0.0000048
3614.1	-0.0000192
3612.2	-0.0000132
3610.3	0.0000064
3608.3	0.0000087
3606.4	-0.0000095
3604.5	-0.0000235
3602.6	-0.0000218
3600.6	-0.0000030
3598.7	0.0000105
3596.8	0.0000011
3594.8	-0.0000055
3592.9	-0.0000035
3591.0	-0.0000187
3589.1	-0.0000387
3587.1	-0.0000311
3585.2	-0.0000011
3583.3	0.0000152
3581.3	0.0000092
3579.4	0.0000055
3577.5	0.0000076
3575.6	0.0000041
3573.6	0.0000028
3571.7	-0.0000064
3569.8	-0.0000325
3567.8	-0.0000363
3565.9	-0.0000060
3564.0	0.0000116
3562.1	0.0000134
3560.1	0.0000400
3558.2	0.0000758
3556.3	0.0000687
3554.3	0.0000277
3552.4	0.0000052
3550.5	0.0000119
3548.6	0.0000135
3546.6	-0.0000027
3544.7	-0.0000125
3542.8	-0.0000147
3540.8	-0.0000265
3538.9	-0.0000360
3537.0	-0.0000226
3535.1	0.0000117
3533.1	0.0000304
3531.2	0.0000005
3529.3	-0.0000422
3527.3	-0.0000507
3525.4	-0.0000403
3523.5	-0.0000376
3521.6	-0.0000414
3519.6	-0.0000479
3517.7	-0.0000471
3515.8	-0.0000313
3513.8	-0.0000332
3511.9	-0.0000620
3510.0	-0.0000607
3508.1	-0.0000197
3506.1	0.0000033
3504.2	-0.0000018
3502.3	-0.0000104
3500.3	-0.0000221
3498.4	-0.0000270
3496.5	-0.0000196
3494.6	-0.0000210
3492.6	-0.0000367
3490.7	-0.0000477
3488.8	-0.0000343
3486.8	0.0000025
3484.9	0.0000368
3483.0	0.0000494
3481.1	0.0000524
3479.1	0.0000537
3477.2	0.0000309
3475.3	-0.0000095
3473.3	-0.0000295
3471.4	-0.0000271
3469.5	-0.0000205
3467.6	-0.0000193
3465.6	-0.0000228
3463.7	-0.0000255
3461.8	-0.0000271
3459.8	-0.0000158
3457.9	0.0000094
3456.0	0.0000186
3454.1	0.0000045
3452.1	-0.0000146
3450.2	-0.0000284
3448.3	-0.0000279
3446.3	-0.0000182
3444.4	-0.0000193
3442.5	-0.0000163
3440.6	0.0000197
3438.6	0.0000625
3436.7	0.0000601
3434.8	0.0000261
3432.8	0.0000209
3430.9	0.0000422
3429.0	0.0000475
3427.1	0.0000435
3425.1	0.0000430
3423.2	0.0000385
3421.3	0.0000293
3419.3	0.0000145
3417.4	0.0000094
3415.5	0.0000245
3413.6	0.0000357
3411.6	0.0000215
3409.7	-0.0000065
3407.8	-0.0000131
3405.8	0.0000073
3403.9	0.0000056
3402.0	-0.0000310
3400.1	-0.0000443
3398.1	-0.0000210
3396.2	-0.0000071
3394.3	-0.0000165
3392.3	-0.0000307
3390.4	-0.0000288
3388.5	-0.0000158
3386.6	-0.0000200
3384.6	-0.0000334
3382.7	-0.0000412
3380.8	-0.0000531
3378.8	-0.0000740
3376.9	-0.0001010
3375.0	-0.0001012
3373.1	-0.0000496
3371.1	0.0000072
3369.2	0.0000209
3367.3	0.0000028
3365.3	-0.0000209
3363.4	-0.0000396
3361.5	-0.0000444
3359.6	-0.0000459
3357.6	-0.0000577
3355.7	-0.0000554
3353.8	-0.0000387
3351.8	-0.0000370
3349.9	-0.0000305
3348.0	-0.0000041
3346.1	0.0000104
3344.1	0.0000047
3342.2	-0.0000024
3340.3	-0.0000036
3338.3	-0.0000093
3336.4	-0.0000184
3334.5	-0.0000142
3332.6	-0.0000080
3330.6	-0.0000135
3328.7	-0.0000058
3326.8	0.0000190
3324.8	0.0000224
3322.9	-0.0000132
3321.0	-0.0000613
3319.1	-0.0000891
3317.1	-0.0000823
3315.2	-0.0000417
3313.3	0.0000009
3311.3	0.0000115
3309.4	0.0000005
3307.5	-0.0000228
3305.6	-0.0000591
3303.6	-0.0000734
3301.7	-0.0000449
3299.8	-0.0000108
3297.8	-0.0000128
3295.9	-0.0000430
3294.0	-0.0000514
3292.1	-0.0000232
3290.1	0.0000083
3288.2	0.0000213
3286.3	0.0000192
3284.3	0.0000193
3282.4	0.0000290
3280.5	0.0000331
3278.6	0.0000203
3276.6	-0.0000091
3274.7	-0.0000351
3272.8	-0.0000297
3270.8	-0.0000163
3268.9	-0.0000235
3267.0	-0.0000176
3265.1	0.0000116
3263.1	0.0000247
3261.2	0.0000218
3259.3	0.0000312
3257.3	0.0000451
3255.4	0.0000439
3253.5	0.0000345
3251.6	0.0000223
3249.6	0.0000062
3247.7	-0.0000053
3245.8	-0.0000135
3243.8	-0.0000255
3241.9	-0.0000338
3240.0	-0.0000380
3238.1	-0.0000499
3236.1	-0.0000629
3234.2	-0.0000614
3232.3	-0.0000432
3230.3	-0.0000179
3228.4	-0.0000162
3226.5	-0.0000464
3224.6	-0.0000611
3222.6	-0.0000380
3220.7	-0.0000210
3218.8	-0.0000289
3216.8	-0.0000254
3214.9	-0.0000029
3213.0	0.0000058
3211.1	-0.0000119
3209.1	-0.0000324
3207.2	-0.0000304
3205.3	-0.0000085
3203.3	0.0000157
3201.4	0.0000210
3199.5	0.0000058
3197.6	0.0000022
3195.6	0.0000238
3193.7	0.0000420
3191.8	0.0000356
3189.8	0.0000153
3187.9	-0.0000034
3186.0	-0.0000138
3184.1	-0.0000106
3182.1	0.0000041
3180.2	0.0000121
3178.3	-0.0000014
3176.3	-0.0000100
3174.4	-0.0000000
3172.5	-0.0000012
3170.6	-0.0000068
3168.6	-0.0000018
3166.7	-0.0000110
3164.8	-0.0000365
3162.8	-0.0000534
3160.9	-0.0000549
3159.0	-0.0000455
3157.1	-0.0000276
3155.1	-0.0000179
3153.2	-0.0000182
3151.3	-0.0000118
3149.3	-0.0000127
3147.4	-0.0000216
3145.5	-0.0000083
3143.6	0.0000159
3141.6	0.0000189
3139.7	0.0000007
3137.8	-0.0000248
3135.8	-0.0000352
3133.9	-0.0000156
3132.0	0.0000037
3130.1	-0.0000033
3128.1	-0.0000153
3126.2	-0.0000210
3124.3	-0.0000271
3122.3	-0.0000183
3120.4	0.0000093
3118.5	0.0000306
3116.6	0.0000378
3114.6	0.0000424
3112.7	0.0000377
3110.8	0.0000149
3108.8	-0.0000108
3106.9	-0.0000273
3105.0	-0.0000309
3103.1	-0.0000260
3101.1	-0.0000341
3099.2	-0.0000527
3097.3	-0.0000609
3095.3	-0.0000535
3093.4	-0.0000257
3091.5	0.0000166
3089.6	0.0000388
3087.6	0.0000201
3085.7	-0.0000050
3083.8	0.0000001
3081.8	0.0000167
3079.9	0.0000175
3078.0	0.0000157
3076.1	0.0000347
3074.1	0.0000437
3072.2	0.0000168
3070.3	0.0000015
3068.3	0.0000030
3066.4	-0.0000153
3064.5	-0.0000256
3062.6	-0.0000066
3060.6	0.0000100
3058.7	0.0000073
3056.8	-0.0000044
3054.8	-0.0000133
3052.9	-0.0000146
3051.0	-0.0000072
3049.1	0.0000065
3047.1	0.0000265
3045.2	0.0000500
3043.3	0.0000567
3041.3	0.0000350
3039.4	0.0000039
3037.5	-0.0000239
3035.6	-0.0000458
3033.6	-0.0000480
3031.7	-0.0000337
3029.8	-0.0000293
3027.8	-0.0000369
3025.9	-0.0000345
3024.0	-0.0000152
3022.1	0.0000064
3020.1	0.0000126
3018.2	-0.0000014
3016.3	-0.0000220
3014.3	-0.0000242
3012.4	-0.0000052
3010.5	-0.0000014
3008.6	-0.0000267
3006.6	-0.0000414
3004.7	-0.0000255
3002.8	-0.0000080
3000.8	-0.0000056
2998.9	-0.0000101
2997.0	-0.0000207
2995.1	-0.0000347
2993.1	-0.0000389
2991.2	-0.0000285
2989.3	-0.0000068
2987.3	0.0000205
2985.4	0.0000301
2983.5	-0.0000008
2981.6	-0.0000410
2979.6	-0.0000464
2977.7	-0.0000272
2975.8	-0.0000044
2973.8	0.0000158
2971.9	0.0000217
2970.0	0.0000130
2968.1	0.0000003
2966.1	-0.0000106
2964.2	-0.0000122
2962.3	-0.0000042
2960.3	-0.0000072
2958.4	-0.0000301
2956.5	-0.0000453
2954.6	-0.0000370
2952.6	-0.0000230
2950.7	-0.0000198
2948.8	-0.0000205
2946.8	-0.0000073
2944.9	0.0000163
2943.0	0.0000342
2941.1	0.0000416
2939.1	0.0000384
2937.2	0.0000268
2935.3	0.0000214
2933.3	0.0000322
2931.4	0.0000375
2929.5	0.0000240
2927.6	0.0000114
2925.6	0.0000015
2923.7	-0.0000127
2921.8	-0.0000161
2919.8	-0.0000043
2917.9	0.0000037
2916.0	-0.0000022
2914.1	-0.0000123
2912.1	-0.0000163
2910.2	-0.0000053
2908.3	0.0000126
2906.3	0.0000145
2904.4	0.0000038
2902.5	-0.0000101
2900.6	-0.0000342
2898.6	-0.0000510
2896.7	-0.0000331
2894.8	0.0000041
2892.8	0.0000174
2890.9	0.0000043
2889.0	-0.0000058
2887.1	-0.0000150
2885.1	-0.0000320
2883.2	-0.0000362
2881.3	-0.0000160
2879.3	0.0000165
2877.4	0.0000404
2875.5	0.0000368
2873.6	0.0000062
2871.6	-0.0000269
2869.7	-0.0000304
2867.8	0.0000020
2865.8	0.0000337
2863.9	0.0000333
2862.0	0.0000186
2860.1	0.0000102
2858.1	-0.0000074
2856.2	-0.0000370
2854.3	-0.0000440
2852.3	-0.0000137
2850.4	0.0000121
2848.5	-0.0000006
2846.6	-0.0000213
2844.6	-0.0000157
2842.7	0.0000019
2840.8	0.0000095
2838.8	0.0000039
2836.9	-0.0000102
2835.0	-0.0000266
2833.1	-0.0000392
2831.1	-0.0000415
2829.2	-0.0000306
2827.3	-0.0000118
2825.3	0.0000009
2823.4	0.0000007
2821.5	0.0000027
2819.6	0.0000128
2817.6	0.0000051
2815.7	-0.0000236
2813.8	-0.0000326
2811.8	-0.0000069
2809.9	0.0000224
2808.0	0.0000242
2806.1	-0.0000043
2804.1	-0.0000306
2802.2	-0.0000240
2800.3	0.0000041
2798.3	0.0000213
2796.4	0.0000244
2794.5	0.0000290
2792.6	0.0000263
2790.6	0.0000174
2788.7	0.0000216
2786.8	0.0000256
2784.8	0.0000165
2782.9	0.0000029
2781.0	-0.0000097
2779.1	-0.0000105
2777.1	-0.0000026
2775.2	0.0000009
2773.3	0.0000092
2771.3	0.0000154
2769.4	-0.0000008
2767.5	-0.0000195
2765.6	-0.0000216
2763.6	-0.0000136
2761.7	-0.0000040
2759.8	-0.0000028
2757.8	-0.0000088
2755.9	-0.0000139
2754.0	-0.0000148
2752.1	-0.0000108
2750.1	-0.0000115
2748.2	-0.0000144
2746.3	-0.0000073
2744.3	-0.0000051
2742.4	-0.0000183
2740.5	-0.0000316
2738.6	-0.0000406
2736.6	-0.0000400
2734.7	-0.0000253
2732.8	-0.0000195
2730.8	-0.0000285
2728.9	-0.0000283
2727.0	-0.0000202
2725.1	-0.0000206
2723.1	-0.0000130
2721.2	0.0000164
2719.3	0.0000440
2717.3	0.0000459
2715.4	0.0000184
2713.5	-0.0000183
2711.6	-0.0000278
2709.6	-0.0000142
2707.7	-0.0000050
2705.8	0.0000013
2703.8	0.0000030
2701.9	-0.0000140
2700.0	-0.0000382
2698.1	-0.0000437
2696.1	-0.0000280
2694.2	-0.0000090
2692.3	0.0000041
2690.3	0.0000063
2688.4	-0.0000051
2686.5	-0.0000183
2684.6	-0.0000215
2682.6	-0.0000215
2680.7	-0.0000235
2678.8	-0.0000167
2676.8	0.0000008
2674.9	0.0000130
2673.0	0.0000117
2671.1	0.0000123
2669.1	0.0000230
2667.2	0.0000249
2665.3	0.0000135
2663.3	-0.0000012
2661.4	-0.0000113
2659.5	-0.0000107
2657.6	-0.0000101
2655.6	-0.0000151
2653.7	-0.0000130
2651.8	-0.0000003
2649.8	0.0000196
2647.9	0.0000326
2646.0	0.0000225
2644.1	0.0000051
2642.1	-0.0000027
2640.2	-0.0000064
2638.3	-0.0000047
2636.3	-0.0000097
2634.4	-0.0000275
2632.5	-0.0000278
2630.6	-0.0000110
2628.6	-0.0000058
2626.7	-0.0000115
2624.8	-0.0000135
2622.8	-0.0000080
2620.9	-0.0000035
2619.0	-0.0000050
2617.1	-0.0000120
2615.1	-0.0000233
2613.2	-0.0000352
2611.3	-0.0000430
2609.3	-0.0000362
2607.4	-0.0000228
2605.5	-0.0000238
2603.6	-0.0000269
2601.6	-0.0000174
2599.7	-0.0000077
2597.8	-0.0000029
2595.8	0.0000066
2593.9	0.0000209
2592.0	0.0000307
2590.1	0.0000242
2588.1	-0.0000010
2586.2	-0.0000199
2584.3	-0.0000184
2582.3	-0.0000158
2580.4	-0.0000159
2578.5	-0.0000085
2576.6	-0.0000050
2574.6	-0.0000127
2572.7	-0.0000085
2570.8	0.0000176
2568.8	0.0000308
2566.9	0.0000110
2565.0	-0.0000138
2563.1	-0.0000152
2561.1	0.0000027
2559.2	0.0000202
2557.3	0.0000231
2555.3	0.0000120
2553.4	-0.0000030
2551.5	-0.0000098
2549.6	-0.0000007
2547.6	0.0000180
2545.7	0.0000326
2543.8	0.0000362
2541.8	0.0000305
2539.9	0.0000174
2538.0	0.0000023
2536.1	0.0000027
2534.1	0.0000175
2532.2	0.0000191
2530.3	0.0000043
2528.3	-0.0000051
2526.4	-0.0000058
2524.5	-0.0000061
2522.6	-0.0000087
2520.6	-0.0000180
2518.7	-0.0000303
2516.8	-0.0000358
2514.8	-0.0000312
2512.9	-0.0000180
2511.0	-0.0000095
2509.1	-0.0000051
2507.1	0.0000062
2505.2	0.0000105
2503.3	0.0000047
2501.3	0.0000010
2499.4	-0.0000112
2497.5	-0.0000237
2495.6	-0.0000102
2493.6	0.0000121
2491.7	0.0000144
2489.8	0.0000043
2487.8	0.0000046
2485.9	0.0000181
2484.0	0.0000209
2482.1	0.0000029
2480.1	-0.0000080
2478.2	0.0000072
2476.3	0.0000288
2474.3	0.0000292
2472.4	0.0000063
2470.5	-0.0000177
2468.6	-0.0000220
2466.6	-0.0000094
2464.7	-0.0000003
2462.8	0.0000014
2460.8	0.0000034
2458.9	0.0000056
2457.0	0.0000047
2455.1	-0.0000064
2453.1	-0.0000234
2451.2	-0.0000300
2449.3	-0.0000257
2447.3	-0.0000187
2445.4	-0.0000081
2443.5	0.0000070
2441.6	0.0000112
2439.6	-0.0000010
2437.7	-0.0000082
2435.8	-0.0000035
2433.8	0.0000044
2431.9	0.0000133
2430.0	0.0000143
2428.1	-0.0000088
2426.1	-0.0000417
2424.2	-0.0000412
2422.3	-0.0000083
2420.3	0.0000185
2418.4	0.0000273
2416.5	0.0000201
2414.6	0.0000008
2412.6	-0.0000217
2410.7	-0.0000296
2408.8	-0.0000072
2406.8	0.0000264
2404.9	0.0000374
2403.0	0.0000238
2401.1	0.0000087
2399.1	0.0000039
2397.2	-0.0000014
2395.3	-0.0000108
2393.3	-0.0000075
2391.4	0.0000017
2389.5	-0.0000046
2387.6	-0.0000143
2385.6	-0.0000137
2383.7	-0.0000101
2381.8	0.0000005
2379.8	0.0000142
2377.9	0.0000124
2376.0	0.0000046
2374.1	0.0000067
2372.1	-0.0000033
2370.2	-0.0000334
2368.3	-0.0000476
2366.3	-0.0000401
2364.4	-0.0000347
2362.5	-0.0000205
2360.6	0.0000022
2358.6	0.0000023
2356.7	-0.0000157
2354.8	-0.0000253
2352.8	-0.0000185
2350.9	-0.0000045
2349.0	0.0000013
2347.1	-0.0000022
2345.1	-0.0000096
2343.2	-0.0000141
2341.3	-0.0000052
2339.3	0.0000032
2337.4	-0.0000036
2335.5	-0.0000110
2333.6	-0.0000105
2331.6	-0.0000096
2329.7	-0.0000087
2327.8	-0.0000123
2325.8	-0.0000272
2323.9	-0.0000366
2322.0	-0.0000223
2320.1	0.0000063
2318.1	0.0000242
2316.2	0.0000166
2314.3	-0.0000033
2312.3	-0.0000109
2310.4	0.0000064
2308.5	0.0000363
2306.6	0.0000466
2304.6	0.0000276
2302.7	0.0000074
2300.8	0.0000079
2298.8	0.0000189
2296.9	0.0000294
2295.0	0.0000346
2293.1	0.0000230
2291.1	-0.0000044
2289.2	-0.0000279
2287.3	-0.0000341
2285.3	-0.0000246
2283.4	-0.0000087
2281.5	-0.0000020
2279.6	-0.0000088
2277.6	-0.0000163
2275.7	-0.0000220
2273.8	-0.0000331
2271.8	-0.0000399
2269.9	-0.0000318
2268.0	-0.0000191
2266.1	-0.0000136
2264.1	-0.0000128
2262.2	-0.0000054
2260.3	0.0000040
2258.3	-0.0000010
2256.4	-0.0000091
2254.5	-0.0000072
2252.6	-0.0000017
2250.6	0.0000116
2248.7	0.0000247
2246.8	0.0000198
2244.8	0.0000117
2242.9	0.0000109
2241.0	0.0000040
2239.1	-0.0000095
2237.1	-0.0000091
2235.2	0.0000096
2233.3	0.0000222
2231.3	0.0000153
2229.4	0.0000046
2227.5	0.0000027
2225.6	0.0000019
2223.6	-0.0000054
2221.7	-0.0000081
2219.8	-0.0000026
2217.8	0.0000029
2215.9	0.0000085
2214.0	0.0000142
2212.1	0.0000168
2210.1	0.0000162
2208.2	0.0000123
2206.3	0.0000013
2204.3	-0.0000119
2202.4	-0.0000075
2200.5	0.0000104
2198.6	0.0000125
2196.6	-0.0000061
2194.7	-0.0000254
2192.8	-0.0000311
2190.8	-0.0000192
2188.9	-0.0000045
2187.0	0.0000008
2185.1	0.0000000
2183.1	-0.0000052
2181.2	-0.0000114
2179.3	-0.0000067
2177.3	0.0000037
2175.4	-0.0000031
2173.5	-0.0000203
2171.6	-0.0000238
2169.6	-0.0000163
2167.7	-0.0000027
2165.8	0.0000143
2163.8	0.0000180
2161.9	0.0000027
2160.0	-0.0000100
2158.1	-0.0000030
2156.1	0.0000085
2154.2	0.0000025
2152.3	-0.0000213
2150.3	-0.0000425
2148.4	-0.0000460
2146.5	-0.0000350
2144.6	-0.0000142
2142.6	0.0000103
2140.7	0.0000312
2138.8	0.0000396
2136.8	0.0000347
2134.9	0.0000261
2133.0	0.0000134
2131.1	0.0000018
2129.1	-0.0000029
2127.2	-0.0000060
2125.3	-0.0000060
2123.3	0.0000035
2121.4	0.0000221
2119.5	0.0000319
2117.6	0.0000123
2115.6	-0.0000180
2113.7	-0.0000193
2111.8	0.0000089
2109.8	0.0000327
2107.9	0.0000334
2106.0	0.0000168
2104.1	0.0000009
2102.1	0.0000047
2100.2	0.0000212
2098.3	0.0000362
2096.3	0.0000660
2094.4	0.0001343
2092.5	0.0002558
2090.6	0.0004045
2088.6	0.0004630
2086.7	0.0003709
2084.8	0.0002380
2082.8	0.0001608
2080.9	0.0001195
2079.0	0.0000776
2077.1	0.0000364
2075.1	0.0000125
2073.2	0.0000098
2071.3	0.0000161
2069.3	0.0000172
2067.4	0.0000170
2065.5	0.0000201
2063.6	0.0000200
2061.6	0.0000185
2059.7	0.0000151
2057.8	0.0000023
2055.8	-0.0000155
2053.9	-0.0000274
2052.0	-0.0000250
2050.1	-0.0000152
2048.1	-0.0000107
2046.2	-0.0000103
2044.3	-0.0000127
2042.3	-0.0000153
2040.4	-0.0000087
2038.5	-0.0000046
2036.6	-0.0000171
2034.6	-0.0000290
2032.7	-0.0000215
2030.8	-0.0000038
2028.8	0.0000022
2026.9	-0.0000066
2025.0	-0.0000073
2023.1	0.0000095
2021.1	0.0000183
2019.2	0.0000070
2017.3	0.0000039
2015.3	0.0000177
2013.4	0.0000251
2011.5	0.0000177
2009.6	0.0000048
2007.6	-0.0000042
2005.7	-0.0000034
2003.8	0.0000023
2001.8	0.0000036
1999.9	-0.0000101
1998.0	-0.0000295
1996.1	-0.0000301
1994.1	-0.0000215
1992.2	-0.0000222
1990.3	-0.0000158
1988.3	0.0000081
1986.4	0.0000299
1984.5	0.0000351
1982.6	0.0000267
1980.6	0.0000140
1978.7	0.0000028
1976.8	-0.0000005
1974.8	0.0000083
1972.9	0.0000185
1971.0	0.0000191
1969.1	0.0000099
1967.1	0.0000018
1965.2	0.0000065
1963.3	0.0000093
1961.4	0.0000012
1959.4	0.0000029
1957.5	0.0000131
1955.6	0.0000151
1953.6	0.0000056
1951.7	-0.0000094
1949.8	-0.0000136
1947.9	-0.0000042
1945.9	-0.0000036
1944.0	-0.0000161
1942.1	-0.0000224
1940.1	-0.0000174
1938.2	-0.0000120
1936.3	-0.0000090
1934.4	-0.0000024
1932.4	0.0000005
1930.5	-0.0000084
1928.6	-0.0000146
1926.6	-0.0000081
1924.7	0.0000041
1922.8	0.0000138
1920.9	0.0000203
1918.9	0.0000166
1917.0	0.0000028
1915.1	-0.0000004
1913.1	0.0000035
1911.2	-0.0000017
1909.3	-0.0000055
1907.4	-0.0000043
1905.4	-0.0000097
1903.5	-0.0000200
1901.6	-0.0000269
1899.6	-0.0000248
1897.7	-0.0000145
1895.8	-0.0000044
1893.9	0.0000015
1891.9	0.0000049
1890.0	0.0000016
1888.1	-0.0000089
1886.1	-0.0000139
1884.2	-0.0000054
1882.3	0.0000093
1880.4	0.0000185
1878.4	0.0000106
1876.5	-0.0000057
1874.6	-0.0000084
1872.6	0.0000007
1870.7	0.0000092
1868.8	0.0000090
1866.9	-0.0000044
1864.9	-0.0000173
1863.0	-0.0000116
1861.1	0.0000042
1859.1	0.0000029
1857.2	-0.0000164
1855.3	-0.0000333
1853.4	-0.0000399
1851.4	-0.0000329
1849.5	-0.0000140
1847.6	0.0000020
1845.6	0.0000001
1843.7	-0.0000112
1841.8	-0.0000150
1839.9	-0.0000159
1837.9	-0.0000178
1836.0	-0.0000086
1834.1	0.0000042
1832.1	0.0000013
1830.2	-0.0000162
1828.3	-0.0000362
1826.4	-0.0000431
1824.4	-0.0000316
1822.5	-0.0000163
1820.6	-0.0000077
1818.6	-0.0000002
1816.7	0.0000063
1814.8	0.0000028
1812.9	-0.0000018
1810.9	0.0000015
1809.0	0.0000000
1807.1	-0.0000060
1805.1	0.0000003
1803.2	0.0000139
1801.3	0.0000077
1799.4	-0.0000155
1797.4	-0.0000248
1795.5	-0.0000188
1793.6	-0.0000192
1791.6	-0.0000275
1789.7	-0.0000301
1787.8	-0.0000198
1785.9	0.0000004
1783.9	0.0000128
1782.0	0.0000043
1780.1	-0.0000101
1778.1	-0.0000105
1776.2	-0.0000013
1774.3	0.0000046
1772.4	0.0000124
1770.4	0.0000213
1768.5	0.0000170
1766.6	0.0000044
1764.6	-0.0000087
1762.7	-0.0000113
1760.8	0.0000098
1758.9	0.0000238
1756.9	0.0000014
1755.0	-0.0000238
1753.1	-0.0000238
1751.1	-0.0000173
1749.2	-0.0000184
1747.3	-0.0000171
1745.4	-0.0000112
1743.4	-0.0000098
1741.5	-0.0000111
1739.6	-0.0000095
1737.6	-0.0000084
1735.7	-0.0000041
1733.8	0.0000067
1731.9	0.0000129
1729.9	0.0000047
1728.0	-0.0000097
1726.1	-0.0000128
1724.1	-0.0000053
1722.2	-0.0000001
1720.3	0.0000018
1718.4	0.0000037
1716.4	0.0000037
1714.5	-0.0000022
1712.6	-0.0000127
1710.6	-0.0000199
1708.7	-0.0000178
1706.8	-0.0000070
1704.9	0.0000005
1702.9	-0.0000069
1701.0	-0.0000215
1699.1	-0.0000250
1697.1	-0.0000170
1695.2	-0.0000107
1693.3	-0.0000107
1691.4	-0.0000161
1689.4	-0.0000204
1687.5	-0.0000093
1685.6	0.0000156
1683.6	0.0000304
1681.7	0.0000193
1679.8	-0.0000048
1677.9	-0.0000170
1675.9	-0.0000094
1674.0	0.0000037
1672.1	0.0000155
1670.1	0.0000283
1668.2	0.0000277
1666.3	0.0000057
1664.4	-0.0000218
1662.4	-0.0000371
1660.5	-0.0000359
1658.6	-0.0000231
1656.6	-0.0000028
1654.7	0.0000172
1652.8	0.0000255
1650.9	0.0000229
1648.9	0.0000184
1647.0	0.0000184
1645.1	0.0000255
1643.1	0.0000286
1641.2	0.0000159
1639.3	-0.0000005
1637.4	-0.0000014
1635.4	0.0000121
1633.5	0.0000214
1631.6	0.0000130
1629.6	-0.0000017
1627.7	0.0000023
1625.8	0.0000166
1623.9	0.0000146
1621.9	0.0000047
1620.0	-0.0000005
1618.1	-0.0000068
1616.1	-0.0000018
1614.2	0.0000229
1612.3	0.0000480
1610.4	0.0000598
1608.4	0.0000551
1606.5	0.0000342
1604.6	0.0000048
1602.6	-0.0000130
1600.7	-0.0000077
1598.8	0.0000043
1596.9	0.0000063
1594.9	-0.0000004
1593.0	-0.0000043
1591.1	0.0000035
1589.1	0.0000155
1587.2	0.0000202
1585.3	0.0000093
1583.4	-0.0000092
1581.4	-0.0000144
1579.5	-0.0000101
1577.6	-0.0000071
1575.6	-0.0000038
1573.7	-0.0000027
1571.8	-0.0000088
1569.9	-0.0000186
1567.9	-0.0000228
1566.0	-0.0000193
1564.1	-0.0000066
1562.1	0.0000168
1560.2	0.0000366
1558.3	0.0000353
1556.4	0.0000123
1554.4	-0.0000213
1552.5	-0.0000397
1550.6	-0.0000281
1548.6	-0.0000126
1546.7	-0.0000141
1544.8	-0.0000208
1542.9	-0.0000198
1540.9	-0.0000186
1539.0	-0.0000253
1537.1	-0.0000288
1535.1	-0.0000186
1533.2	-0.0000062
1531.3	-0.0000013
1529.4	0.0000022
1527.4	0.0000051
1525.5	0.0000056
1523.6	0.0000083
1521.6	0.0000079
1519.7	0.0000032
1517.8	0.0000053
1515.9	0.0000096
1513.9	0.0000098
1512.0	0.0000168
1510.1	0.0000313
1508.1	0.0000376
1506.2	0.0000250
1504.3	0.0000023
1502.4	-0.0000092
1500.4	-0.0000004
1498.5	0.0000194
1496.6	0.0000391
1494.6	0.0000360
1492.7	0.0000024
1490.8	-0.0000275
1488.9	-0.0000355
1486.9	-0.0000294
1485.0	-0.0000126
1483.1	0.0000019
1481.1	-0.0000004
1479.2	-0.0000092
1477.3	-0.0000036
1475.4	0.0000108
1473.4	0.0000112
1471.5	-0.0000110
1469.6	-0.0000394
1467.6	-0.0000443
1465.7	-0.0000264
1463.8	-0.0000150
1461.9	-0.0000133
1459.9	-0.0000032
1458.0	0.0000070
1456.1	0.0000051
1454.1	0.0000032
1452.2	0.0000036
1450.3	0.0000020
1448.4	0.0000001
1446.4	-0.0000000
1444.5	0.0000062
1442.6	0.0000188
1440.6	0.0000282
1438.7	0.0000176
1436.8	-0.0000083
1434.9	-0.0000241
1432.9	-0.0000251
1431.0	-0.0000161
1429.1	-0.0000054
1427.1	-0.0000109
1425.2	-0.0000251
1423.3	-0.0000187
1421.4	0.0000056
1419.4	0.0000119
1417.5	-0.0000121
1415.6	-0.0000400
1413.6	-0.0000470
1411.7	-0.0000331
1409.8	-0.0000072
1407.9	0.0000133
1405.9	0.0000102
1404.0	-0.0000079
1402.1	-0.0000196
1400.1	-0.0000126
1398.2	0.0000046
1396.3	0.0000052
1394.4	-0.0000118
1392.4	-0.0000221
1390.5	-0.0000221
1388.6	-0.0000214
1386.6	-0.0000127
1384.7	0.0000004
1382.8	-0.0000016
1380.9	-0.0000114
1378.9	-0.0000178
1377.0	-0.0000294
1375.1	-0.0000391
1373.1	-0.0000320
1371.2	-0.0000217
1369.3	-0.0000203
1367.4	-0.0000191
1365.4	-0.0000219
1363.5	-0.0000294
1361.6	-0.0000360
1359.6	-0.0000431
1357.7	-0.0000424
1355.8	-0.0000375
1353.9	-0.0000364
1351.9	-0.0000299
1350.0	-0.0000225
1348.1	-0.0000182
1346.1	-0.0000068
1344.2	0.0000042
1342.3	0.0000060
1340.4	0.0000035
1338.4	-0.0000015
1336.5	-0.0000051
1334.6	-0.0000070
1332.6	-0.0000025
1330.7	0.0000165
1328.8	0.0000289
1326.9	0.0000169
1324.9	-0.0000068
1323.0	-0.0000290
1321.1	-0.0000370
1319.1	-0.0000276
1317.2	-0.0000178
1315.3	-0.0000260
1313.4	-0.0000488
1311.4	-0.0000566
1309.5	-0.0000445
1307.6	-0.0000392
1305.6	-0.0000405
1303.7	-0.0000316
1301.8	-0.0000197
1299.9	-0.0000150
1297.9	-0.0000071
1296.0	0.0000051
1294.1	0.0000089
1292.1	0.0000047
1290.2	-0.0000029
1288.3	-0.0000074
1286.4	-0.0000011
1284.4	0.0000086
1282.5	0.0000139
1280.6	0.0000135
1278.6	0.0000066
1276.7	-0.0000076
1274.8	-0.0000251
1272.9	-0.0000242
1270.9	-0.0000057
1269.0	-0.0000041
1267.1	-0.0000134
1265.1	-0.0000030
1263.2	0.0000105
1261.3	0.0000072
1259.4	-0.0000007
1257.4	-0.0000023
1255.5	0.0000030
1253.6	0.0000010
1251.6	-0.0000205
1249.7	-0.0000384
1247.8	-0.0000328
1245.9	-0.0000189
1243.9	-0.0000120
1242.0	-0.0000106
1240.1	-0.0000027
1238.1	0.0000232
1236.2	0.0000465
1234.3	0.0000427
1232.4	0.0000272
1230.4	0.0000164
1228.5	0.0000053
1226.6	-0.0000082
1224.6	-0.0000106
1222.7	0.0000064
1220.8	0.0000172
1218.9	-0.0000070
1216.9	-0.0000435
1215.0	-0.0000447
1213.1	-0.0000077
1211.1	0.0000271
1209.2	0.0000354
1207.3	0.0000345
1205.4	0.0000397
1203.4	0.0000391
1201.5	0.0000396
1199.6	0.0000520
1197.6	0.0000501
1195.7	0.0000219
1193.8	-0.0000097
1191.9	-0.0000224
1189.9	-0.0000142
1188.0	-0.0000032
1186.1	0.0000006
1184.1	0.0000027
1182.2	0.0000061
1180.3	0.0000159
1178.4	0.0000218
1176.4	0.0000164
1174.5	0.0000253
1172.6	0.0000471
1170.6	0.0000409
1168.7	0.0000105
1166.8	-0.0000004
1164.9	0.0000163
1162.9	0.0000233
1161.0	-0.0000008
1159.1	-0.0000231
1157.1	-0.0000087
1155.2	0.0000229
1153.3	0.0000274
1151.4	-0.0000024
1149.4	-0.0000314
1147.5	-0.0000316
1145.6	-0.0000115
1143.6	0.0000041
1141.7	0.0000146
1139.8	0.0000309
1137.9	0.0000346
1135.9	0.0000117
1134.0	-0.0000138
1132.1	-0.0000210
1130.1	-0.0000128
1128.2	0.0000011
1126.3	0.0000075
1124.4	-0.0000022
1122.4	-0.0000113
1120.5	0.0000100
1118.6	0.0000481
1116.6	0.0000516
1114.7	0.0000228
1112.8	0.0000089
1110.9	0.0000208
1108.9	0.0000456
1107.0	0.0000702
1105.1	0.0000744
1103.1	0.0000622
1101.2	0.0000492
1099.3	0.0000246
1097.4	-0.0000074
1095.4	-0.0000209
1093.5	-0.0000180
1091.6	-0.0000225
1089.6	-0.0000397
1087.7	-0.0000465
1085.8	-0.0000317
1083.9	-0.0000080
1081.9	0.0000194
1080.0	0.0000427
1078.1	0.0000383
1076.1	0.0000134
1074.2	0.0000072
1072.3	0.0000184
1070.4	0.0000149
1068.4	0.0000027
1066.5	0.0000031
1064.6	0.0000106
1062.6	0.0000195
1060.7	0.0000204
1058.8	0.0000003
1056.9	-0.0000088
1054.9	0.0000032
1053.0	0.0000013
1051.1	-0.0000024
1049.1	-0.0000013
1047.2	-0.0000090
1045.3	-0.0000020
1043.4	0.0000239
1041.4	0.0000446
1039.5	0.0000345
1037.6	-0.0000034
1035.6	-0.0000165
1033.7	0.0000064
1031.8	0.0000177
1029.9	0.0000062
1027.9	0.0000043
1026.0	0.0000138
1024.1	0.0000048
1022.1	-0.0000039
1020.2	0.0000227
1018.3	0.0000600
1016.4	0.0000627
1014.4	0.0000293
1012.5	0.0000064
1010.6	0.0000232
1008.6	0.0000447
1006.7	0.0000412
1004.8	0.0000329
1002.9	0.0000337
1000.9	0.0000375
999.0	0.0000435
997.1	0.0000421
995.1	0.0000217
993.2	-0.0000051
991.3	-0.0000164
989.4	-0.0000041
987.4	0.0000081
985.5	-0.0000010
983.6	-0.0000118
981.6	-0.0000207
979.7	-0.0000261
977.8	0.0000074
975.9	0.0000630
973.9	0.0000767
972.0	0.0000343
970.1	-0.0000184
968.1	-0.0000373
966.2	-0.0000205
964.3	0.0000052
962.4	0.0000145
960.4	0.0000100
958.5	0.0000006
956.6	-0.0000132
954.6	-0.0000227
952.7	-0.0000175
950.8	0.0000092
948.9	0.0000379
946.9	0.0000409
945.0	0.0000342
943.1	0.0000433
941.1	0.0000562
939.2	0.0000590
937.3	0.0000651
935.4	0.0000663
933.4	0.0000554
931.5	0.0000698
929.6	0.0001074
927.6	0.0001145
925.7	0.0000753
923.8	0.0000325
921.9	0.0000292
919.9	0.0000440
918.0	0.0000349
916.1	0.0000152
914.1	-0.0000126
912.2	-0.0000624
910.3	-0.0000850
908.4	-0.0000634
906.4	-0.0000425
904.5	-0.0000036
902.6	0.0000707
900.6	0.0001220
898.7	0.0001328
896.8	0.0001254
894.9	0.0000882
892.9	0.0000564
891.0	0.0000767
889.1	0.0001059
887.1	0.0001265
885.2	0.0001583
883.3	0.0001539
881.4	0.0000774
879.4	-0.0000124
877.5	-0.0000221
875.6	0.0000456
873.6	0.0000852
871.7	0.0000701
869.8	0.0000657
867.9	0.0000648
865.9	0.0000157
864.0	-0.0000566
862.1	-0.0000918
860.1	-0.0000878
858.2	-0.0000847
856.3	-0.0000972
854.4	-0.0001109
852.4	-0.0001025
850.5	-0.0000458
848.6	0.0000533
846.6	0.0001213
844.7	0.0000932
842.8	0.0000132
840.9	-0.0000352
838.9	-0.0000431
837.0	-0.0000158
835.1	0.0000558
833.1	0.0001100
831.2	0.0000888
829.3	0.0000276
827.4	-0.0000596
825.4	-0.0001264
823.5	-0.0000337
821.6	0.0001594
819.6	0.0002032
817.7	0.0000750
815.8	-0.0000259
813.9	-0.0000093
811.9	0.0000686
810.0	0.0001174
808.1	0.0001040
806.1	0.0001012
804.2	0.0001127
802.3	0.0000540
800.4	-0.0000159
798.4	-0.0000116
796.5	-0.0000032
794.6	0.0000156
792.6	0.0001263
790.7	0.0002307
788.8	0.0002486
786.9	0.0002027
784.9	0.0000770
783.0	-0.0000109
781.1	0.0000833
779.1	0.0002625
777.2	0.0003597
775.3	0.0003071
773.4	0.0001662
771.4	0.0000889
769.5	0.0000680
767.6	-0.0000002
765.6	-0.0000170
763.7	0.0000847
761.8	0.0001879
759.9	0.0002507
757.9	0.0003315
756.0	0.0004294
754.1	0.0003885
752.1	0.0001411
750.2	-0.0000831
748.3	-0.0001077
746.4	-0.0001093
744.4	-0.0002110
742.5	-0.0002330
740.6	-0.0002059
738.6	-0.0003129
736.7	-0.0004359
734.8	-0.0003628
732.9	-0.0001168
730.9	-0.0000257
729.0	-0.0002087
727.1	-0.0003122
725.1	-0.0001569
723.2	-0.0000415
721.3	-0.0001197
719.4	-0.0001892
717.4	-0.0002562
715.5	-0.0002733
713.6	-0.0000078
711.6	0.0004193
709.7	0.0007860
707.8	0.0008069
705.9	0.0003966
703.9	0.0000421
702.0	-0.0001640
700.1	-0.0005526
698.1	-0.0008436
696.2	-0.0006699
694.3	-0.0004186
692.4	-0.0002967
690.4	0.0000889
688.5	0.0006255
686.6	0.0008080
684.6	0.0004251
682.7	-0.0001734
680.8	-0.0002466
678.9	0.0001671
676.9	0.0002992
675.0	-0.0000005
673.1	-0.0002910
671.1	-0.0004669
669.2	-0.0006377
667.3	-0.0005462
665.4	-0.0001037
663.4	0.0001267
661.5	-0.0001483
659.6	-0.0002555
657.6	0.0002231
655.7	0.0008329
653.8	0.0013326
651.9	0.0014189
649.9	0.0008842
648.0	0.0004470
646.1	0.0003458
644.1	0.0000475
642.2	-0.0003739
640.3	-0.0005431
638.4	-0.0005882
636.4	-0.0006289
634.5	-0.0005193
632.6	-0.0003351
630.6	-0.0001070
628.7	0.0001118
626.8	-0.0000731
624.9	-0.0005737
622.9	-0.0008179
621.0	-0.0007157
619.1	-0.0004885
617.1	-0.0001813
615.2	-0.0000110
613.3	-0.0002503
611.4	-0.0004604
609.4	-0.0000005
607.5	0.0008446
605.6	0.0012053
603.6	0.0006052
601.7	-0.0002663
599.8	-0.0003251
597.9	0.0001084
595.9	0.0002061
594.0	0.0001008
592.1	0.0001317
590.1	0.0001047
588.2	0.0000328
586.3	0.0003857
584.4	0.0005762
582.4	0.0000512
580.5	-0.0002967
578.6	-0.0001902
576.6	-0.0001316
574.7	-0.0003879
572.8	-0.0009167
570.9	-0.0011326
568.9	-0.0008687
567.0	-0.0005058
565.1	-0.0000974
563.1	0.0003778
561.2	0.0007161
559.3	0.0007194
557.4	0.0004414
555.4	0.0001399
553.5	-0.0000713
551.6	-0.0002287
549.6	-0.0002423
547.7	0.0000295
545.8	0.0004193
543.9	0.0004297
541.9	0.0001394
540.0	0.0001853
538.1	0.0004937
536.1	0.0005561
534.2	0.0004645
532.3	0.0004887
530.4	0.0005338
528.4	0.0008474
526.5	0.0014101
524.6	0.0009899
522.6	-0.0006961
520.7	-0.0020258
518.8	-0.0018164
516.9	-0.0007175
514.9	0.0000423
513.0	0.0001785
511.1	-0.0001457
509.1	-0.0005967
507.2	-0.0006317
505.3	-0.0003606
503.4	-0.0001898
501.4	-0.0002141
499.5	-0.0004083
497.6	-0.0006140
495.6	-0.0006849
493.7	-0.0006868
491.8	-0.0006682
489.9	-0.0005406
487.9	-0.0005064
486.0	-0.0007839
484.1	-0.0010100
482.1	-0.0008110
480.2	-0.0004115
478.3	-0.0001569
476.4	-0.0000425
474.4	0.0000096
472.5	0.0000653
470.6	0.0002625
468.6	0.0004306
466.7	0.0002598
464.8	0.0000044
462.9	0.0001225
460.9	0.0002389
459.0	-0.0002309
457.1	-0.0008205
455.1	-0.0009720
453.2	-0.0009996
451.3	-0.0010860
449.4	-0.0010770
447.4	-0.0010936
445.5	-0.0009789
443.6	-0.0002566
441.6	0.0009498
439.7	0.0016686
437.8	0.0011670
435.9	0.0001246
433.9	-0.0002668
432.0	0.0003931
430.1	0.0012837
428.1	0.0011638
426.2	0.0002349
424.3	-0.0005208
422.4	-0.0008603
420.4	-0.0009615
418.5	-0.0008807
416.6	-0.0004325
414.6	0.0003032
412.7	0.0007599
410.8	0.0007941
408.9	0.0010188
406.9	0.0014259
405.0	0.0011106
403.1	0.0000337
401.1	-0.0006909
399.2	-0.0006297
397.3	-0.0004728
395.4	-0.0004903
393.4	-0.0004558
391.5	-0.0003405
389.6	-0.0002308
387.6	-0.0003415
385.7	-0.0005257
383.8	-0.0004175
381.9	-0.0001097
379.9	-0.0000087
378.0	-0.0001838
376.1	-0.0003336
374.1	-0.0003367
372.2	-0.0002632
370.3	0.0000209
368.4	0.0001157
