3997.9	0.0000103
3996.0	0.0000134
3994.1	0.0000141
3992.1	0.0000142
3990.2	0.0000212
3988.3	0.0000337
3986.3	0.0000405
3984.4	0.0000414
3982.5	0.0000430
3980.6	0.0000423
3978.6	0.0000420
3976.7	0.0000482
3974.8	0.0000570
3972.8	0.0000562
3970.9	0.0000469
3969.0	0.0000476
3967.1	0.0000542
3965.1	0.0000522
3963.2	0.0000432
3961.3	0.0000379
3959.3	0.0000368
3957.4	0.0000308
3955.5	0.0000242
3953.6	0.0000271
3951.6	0.0000366
3949.7	0.0000420
3947.8	0.0000364
3945.8	0.0000249
3943.9	0.0000178
3942.0	0.0000151
3940.1	0.0000161
3938.1	0.0000267
3936.2	0.0000463
3934.3	0.0000604
3932.3	0.0000586
3930.4	0.0000469
3928.5	0.0000380
3926.6	0.0000364
3924.6	0.0000418
3922.7	0.0000484
3920.8	0.0000539
3918.8	0.0000580
3916.9	0.0000536
3915.0	0.0000421
3913.1	0.0000346
3911.1	0.0000293
3909.2	0.0000276
3907.3	0.0000469
3905.3	0.0000826
3903.4	0.0001057
3901.5	0.0001031
3899.6	0.0000812
3897.6	0.0000552
3895.7	0.0000455
3893.8	0.0000570
3891.8	0.0000648
3889.9	0.0000575
3888.0	0.0000638
3886.1	0.0000817
3884.1	0.0000768
3882.2	0.0000613
3880.3	0.0000532
3878.3	0.0000468
3876.4	0.0000456
3874.5	0.0000469
3872.6	0.0000650
3870.6	0.0000987
3868.7	0.0001079
3866.8	0.0001082
3864.8	0.0001155
3862.9	0.0000891
3861.0	0.0000341
3859.1	0.0000202
3857.1	0.0001151
3855.2	0.0002845
3853.3	0.0003558
3851.3	0.0002490
3849.4	0.0001006
3847.5	0.0000291
3845.6	0.0000220
3843.6	0.0000403
3841.7	0.0000753
3839.8	0.0001207
3837.8	0.0001435
3835.9	0.0001255
3834.0	0.0000925
3832.1	0.0000650
3830.1	0.0000431
3828.2	0.0000309
3826.3	0.0000291
3824.3	0.0000403
3822.4	0.0000661
3820.5	0.0000845
3818.6	0.0000907
3816.6	0.0000883
3814.7	0.0000573
3812.8	0.0000232
3810.8	0.0000352
3808.9	0.0000850
3807.0	0.0001146
3805.1	0.0001101
3803.1	0.0001163
3801.2	0.0001131
3799.3	0.0000738
3797.3	0.0000433
3795.4	0.0000246
3793.5	-0.0000013
3791.6	-0.0000164
3789.6	-0.0000197
3787.7	-0.0000183
3785.8	-0.0000120
3783.8	-0.0000059
3781.9	0.0000017
3780.0	0.0000096
3778.1	0.0000068
3776.1	0.0000014
3774.2	0.0000055
3772.3	0.0000149
3770.3	0.0000270
3768.4	0.0000409
3766.5	0.0000484
3764.6	0.0000414
3762.6	0.0000363
3760.7	0.0000493
3758.8	0.0000489
3756.8	0.0000283
3754.9	0.0000404
3753.0	0.0001097
3751.1	0.0001872
3749.1	0.0002088
3747.2	0.0002260
3745.3	0.0002704
3743.3	0.0002275
3741.4	0.0001146
3739.5	0.0000716
3737.6	0.0000999
3735.6	0.0001281
3733.7	0.0001211
3731.8	0.0000798
3729.8	0.0000371
3727.9	0.0000233
3726.0	0.0000266
3724.1	0.0000256
3722.1	0.0000233
3720.2	0.0000170
3718.3	0.0000049
3716.3	0.0000145
3714.4	0.0000681
3712.5	0.0001121
3710.6	0.0000809
3708.6	0.0000169
3706.7	-0.0000135
3704.8	-0.0000045
3702.8	0.0000133
3700.9	0.0000086
3699.0	-0.0000091
3697.1	-0.0000160
3695.1	-0.0000057
3693.2	0.0000271
3691.3	0.0000754
3689.3	0.0000950
3687.4	0.0000553
3685.5	0.0000046
3683.6	-0.0000084
3681.6	-0.0000002
3679.7	0.0000253
3677.8	0.0000946
3675.8	0.0001578
3673.9	0.0001546
3672.0	0.0001302
3670.1	0.0001032
3668.1	0.0000476
3666.2	-0.0000053
3664.3	-0.0000294
3662.3	-0.0000358
3660.4	-0.0000263
3658.5	0.0000066
3656.6	0.0000348
3654.6	0.0000351
3652.7	0.0000605
3650.8	0.0001224
3648.8	0.0001369
3646.9	0.0000790
3645.0	0.0000126
3643.1	-0.0000271
3641.1	-0.0000480
3639.2	-0.0000548
3637.3	-0.0000433
3635.3	-0.0000208
3633.4	0.0000061
3631.5	0.0000537
3629.6	0.0000901
3627.6	0.0000586
3625.7	-0.0000018
3623.8	-0.0000236
3621.8	-0.0000085
3619.9	0.0000096
3618.0	0.0000100
3616.1	0.0000073
3614.1	0.0000211
3612.2	0.0000396
3610.3	0.0000451
3608.3	0.0000257
3606.4	-0.0000124
3604.5	-0.0000371
3602.6	-0.0000353
3600.6	-0.0000239
3598.7	-0.0000172
3596.8	-0.0000165
3594.8	-0.0000184
3592.9	-0.0000271
3591.0	-0.0000407
3589.1	-0.0000425
3587.1	-0.0000362
3585.2	-0.0000358
3583.3	-0.0000370
3581.3	-0.0000406
3579.4	-0.0000501
3577.5	-0.0000565
3575.6	-0.0000601
3573.6	-0.0000664
3571.7	-0.0000650
3569.8	-0.0000416
3567.8	-0.0000065
3565.9	0.0000085
3564.0	-0.0000093
3562.1	-0.0000395
3560.1	-0.0000526
3558.2	-0.0000458
3556.3	-0.0000452
3554.3	-0.0000527
3552.4	-0.0000534
3550.5	-0.0000528
3548.6	-0.0000531
3546.6	-0.0000507
3544.7	-0.0000482
3542.8	-0.0000457
3540.8	-0.0000448
3538.9	-0.0000442
3537.0	-0.0000415
3535.1	-0.0000439
3533.1	-0.0000542
3531.2	-0.0000605
3529.3	-0.0000576
3527.3	-0.0000594
3525.4	-0.0000703
3523.5	-0.0000804
3521.6	-0.0000836
3519.6	-0.0000788
3517.7	-0.0000741
3515.8	-0.0000805
3513.8	-0.0000895
3511.9	-0.0000811
3510.0	-0.0000603
3508.1	-0.0000516
3506.1	-0.0000593
3504.2	-0.0000663
3502.3	-0.0000647
3500.3	-0.0000633
3498.4	-0.0000649
3496.5	-0.0000645
3494.6	-0.0000613
3492.6	-0.0000580
3490.7	-0.0000545
3488.8	-0.0000502
3486.8	-0.0000516
3484.9	-0.0000605
3483.0	-0.0000664
3481.1	-0.0000664
3479.1	-0.0000629
3477.2	-0.0000552
3475.3	-0.0000518
3473.3	-0.0000545
3471.4	-0.0000558
3469.5	-0.0000577
3467.6	-0.0000598
3465.6	-0.0000564
3463.7	-0.0000500
3461.8	-0.0000454
3459.8	-0.0000445
3457.9	-0.0000496
3456.0	-0.0000591
3454.1	-0.0000702
3452.1	-0.0000761
3450.2	-0.0000712
3448.3	-0.0000632
3446.3	-0.0000623
3444.4	-0.0000660
3442.5	-0.0000645
3440.6	-0.0000589
3438.6	-0.0000578
3436.7	-0.0000604
3434.8	-0.0000609
3432.8	-0.0000551
3430.9	-0.0000485
3429.0	-0.0000507
3427.1	-0.0000592
3425.1	-0.0000657
3423.2	-0.0000632
3421.3	-0.0000548
3419.3	-0.0000536
3417.4	-0.0000625
3415.5	-0.0000695
3413.6	-0.0000661
3411.6	-0.0000579
3409.7	-0.0000567
3407.8	-0.0000647
3405.8	-0.0000681
3403.9	-0.0000556
3402.0	-0.0000390
3400.1	-0.0000367
3398.1	-0.0000484
3396.2	-0.0000602
3394.3	-0.0000610
3392.3	-0.0000510
3390.4	-0.0000435
3388.5	-0.0000486
3386.6	-0.0000572
3384.6	-0.0000566
3382.7	-0.0000517
3380.8	-0.0000529
3378.8	-0.0000574
3376.9	-0.0000617
3375.0	-0.0000631
3373.1	-0.0000567
3371.1	-0.0000482
3369.2	-0.0000514
3367.3	-0.0000667
3365.3	-0.0000795
3363.4	-0.0000763
3361.5	-0.0000579
3359.6	-0.0000392
3357.6	-0.0000309
3355.7	-0.0000306
3353.8	-0.0000365
3351.8	-0.0000506
3349.9	-0.0000637
3348.0	-0.0000662
3346.1	-0.0000635
3344.1	-0.0000620
3342.2	-0.0000611
3340.3	-0.0000633
3338.3	-0.0000690
3336.4	-0.0000694
3334.5	-0.0000633
3332.6	-0.0000572
3330.6	-0.0000495
3328.7	-0.0000388
3326.8	-0.0000331
3324.8	-0.0000391
3322.9	-0.0000539
3321.0	-0.0000656
3319.1	-0.0000621
3317.1	-0.0000487
3315.2	-0.0000454
3313.3	-0.0000557
3311.3	-0.0000631
3309.4	-0.0000608
3307.5	-0.0000579
3305.6	-0.0000547
3303.6	-0.0000430
3301.7	-0.0000289
3299.8	-0.0000287
3297.8	-0.0000481
3295.9	-0.0000721
3294.0	-0.0000764
3292.1	-0.0000602
3290.1	-0.0000495
3288.2	-0.0000537
3286.3	-0.0000574
3284.3	-0.0000535
3282.4	-0.0000482
3280.5	-0.0000463
3278.6	-0.0000474
3276.6	-0.0000473
3274.7	-0.0000441
3272.8	-0.0000394
3270.8	-0.0000369
3268.9	-0.0000350
3267.0	-0.0000256
3265.1	-0.0000121
3263.1	-0.0000105
3261.2	-0.0000205
3259.3	-0.0000286
3257.3	-0.0000289
3255.4	-0.0000260
3253.5	-0.0000268
3251.6	-0.0000307
3249.6	-0.0000337
3247.7	-0.0000314
3245.8	-0.0000227
3243.8	-0.0000156
3241.9	-0.0000176
3240.0	-0.0000249
3238.1	-0.0000294
3236.1	-0.0000269
3234.2	-0.0000213
3232.3	-0.0000212
3230.3	-0.0000264
3228.4	-0.0000335
3226.5	-0.0000418
3224.6	-0.0000459
3222.6	-0.0000445
3220.7	-0.0000437
3218.8	-0.0000414
3216.8	-0.0000323
3214.9	-0.0000249
3213.0	-0.0000302
3211.1	-0.0000384
3209.1	-0.0000369
3207.2	-0.0000308
3205.3	-0.0000289
3203.3	-0.0000311
3201.4	-0.0000359
3199.5	-0.0000405
3197.6	-0.0000376
3195.6	-0.0000332
3193.7	-0.0000411
3191.8	-0.0000525
3189.8	-0.0000522
3187.9	-0.0000476
3186.0	-0.0000504
3184.1	-0.0000559
3182.1	-0.0000553
3180.2	-0.0000498
3178.3	-0.0000493
3176.3	-0.0000551
3174.4	-0.0000608
3172.5	-0.0000634
3170.6	-0.0000630
3168.6	-0.0000645
3166.7	-0.0000681
3164.8	-0.0000704
3162.8	-0.0000745
3160.9	-0.0000763
3159.0	-0.0000705
3157.1	-0.0000659
3155.1	-0.0000678
3153.2	-0.0000699
3151.3	-0.0000687
3149.3	-0.0000703
3147.4	-0.0000742
3145.5	-0.0000750
3143.6	-0.0000770
3141.6	-0.0000814
3139.7	-0.0000824
3137.8	-0.0000814
3135.8	-0.0000811
3133.9	-0.0000826
3132.0	-0.0000901
3130.1	-0.0000995
3128.1	-0.0001014
3126.2	-0.0000978
3124.3	-0.0000955
3122.3	-0.0000919
3120.4	-0.0000879
3118.5	-0.0000904
3116.6	-0.0000977
3114.6	-0.0001032
3112.7	-0.0001029
3110.8	-0.0001004
3108.8	-0.0001042
3106.9	-0.0001154
3105.0	-0.0001261
3103.1	-0.0001288
3101.1	-0.0001259
3099.2	-0.0001255
3097.3	-0.0001271
3095.3	-0.0001270
3093.4	-0.0001280
3091.5	-0.0001298
3089.6	-0.0001317
3087.6	-0.0001381
3085.7	-0.0001441
3083.8	-0.0001439
3081.8	-0.0001441
3079.9	-0.0001485
3078.0	-0.0001560
3076.1	-0.0001629
3074.1	-0.0001619
3072.2	-0.0001526
3070.3	-0.0001434
3068.3	-0.0001421
3066.4	-0.0001445
3064.5	-0.0001414
3062.6	-0.0001354
3060.6	-0.0001324
3058.7	-0.0001337
3056.8	-0.0001374
3054.8	-0.0001409
3052.9	-0.0001425
3051.0	-0.0001401
3049.1	-0.0001347
3047.1	-0.0001351
3045.2	-0.0001427
3043.3	-0.0001494
3041.3	-0.0001529
3039.4	-0.0001524
3037.5	-0.0001474
3035.6	-0.0001452
3033.6	-0.0001474
3031.7	-0.0001479
3029.8	-0.0001464
3027.8	-0.0001444
3025.9	-0.0001398
3024.0	-0.0001361
3022.1	-0.0001401
3020.1	-0.0001513
3018.2	-0.0001624
3016.3	-0.0001668
3014.3	-0.0001607
3012.4	-0.0001465
3010.5	-0.0001352
3008.6	-0.0001367
3006.6	-0.0001427
3004.7	-0.0001413
3002.8	-0.0001411
3000.8	-0.0001505
2998.9	-0.0001570
2997.0	-0.0001517
2995.1	-0.0001417
2993.1	-0.0001361
2991.2	-0.0001378
2989.3	-0.0001445
2987.3	-0.0001501
2985.4	-0.0001496
2983.5	-0.0001465
2981.6	-0.0001469
2979.6	-0.0001488
2977.7	-0.0001480
2975.8	-0.0001435
2973.8	-0.0001382
2971.9	-0.0001350
2970.0	-0.0001335
2968.1	-0.0001329
2966.1	-0.0001354
2964.2	-0.0001387
2962.3	-0.0001401
2960.3	-0.0001451
2958.4	-0.0001478
2956.5	-0.0001392
2954.6	-0.0001307
2952.6	-0.0001324
2950.7	-0.0001390
2948.8	-0.0001446
2946.8	-0.0001429
2944.9	-0.0001311
2943.0	-0.0001219
2941.1	-0.0001248
2939.1	-0.0001328
2937.2	-0.0001395
2935.3	-0.0001439
2933.3	-0.0001440
2931.4	-0.0001401
2929.5	-0.0001325
2927.6	-0.0001231
2925.6	-0.0001213
2923.7	-0.0001302
2921.8	-0.0001386
2919.8	-0.0001402
2917.9	-0.0001385
2916.0	-0.0001371
2914.1	-0.0001397
2912.1	-0.0001457
2910.2	-0.0001503
2908.3	-0.0001491
2906.3	-0.0001438
2904.4	-0.0001384
2902.5	-0.0001327
2900.6	-0.0001306
2898.6	-0.0001375
2896.7	-0.0001452
2894.8	-0.0001450
2892.8	-0.0001427
2890.9	-0.0001433
2889.0	-0.0001433
2887.1	-0.0001435
2885.1	-0.0001440
2883.2	-0.0001437
2881.3	-0.0001452
2879.3	-0.0001473
2877.4	-0.0001460
2875.5	-0.0001422
2873.6	-0.0001401
2871.6	-0.0001407
2869.7	-0.0001375
2867.8	-0.0001345
2865.8	-0.0001426
2863.9	-0.0001545
2862.0	-0.0001571
2860.1	-0.0001510
2858.1	-0.0001438
2856.2	-0.0001409
2854.3	-0.0001402
2852.3	-0.0001338
2850.4	-0.0001294
2848.5	-0.0001348
2846.6	-0.0001406
2844.6	-0.0001394
2842.7	-0.0001335
2840.8	-0.0001298
2838.8	-0.0001313
2836.9	-0.0001350
2835.0	-0.0001431
2833.1	-0.0001512
2831.1	-0.0001502
2829.2	-0.0001449
2827.3	-0.0001426
2825.3	-0.0001416
2823.4	-0.0001417
2821.5	-0.0001450
2819.6	-0.0001484
2817.6	-0.0001465
2815.7	-0.0001382
2813.8	-0.0001331
2811.8	-0.0001394
2809.9	-0.0001464
2808.0	-0.0001441
2806.1	-0.0001413
2804.1	-0.0001472
2802.2	-0.0001537
2800.3	-0.0001495
2798.3	-0.0001416
2796.4	-0.0001422
2794.5	-0.0001456
2792.6	-0.0001414
2790.6	-0.0001340
2788.7	-0.0001322
2786.8	-0.0001336
2784.8	-0.0001338
2782.9	-0.0001347
2781.0	-0.0001399
2779.1	-0.0001469
2777.1	-0.0001469
2775.2	-0.0001394
2773.3	-0.0001347
2771.3	-0.0001337
2769.4	-0.0001290
2767.5	-0.0001234
2765.6	-0.0001228
2763.6	-0.0001248
2761.7	-0.0001265
2759.8	-0.0001259
2757.8	-0.0001255
2755.9	-0.0001314
2754.0	-0.0001359
2752.1	-0.0001307
2750.1	-0.0001223
2748.2	-0.0001182
2746.3	-0.0001187
2744.3	-0.0001251
2742.4	-0.0001353
2740.5	-0.0001397
2738.6	-0.0001374
2736.6	-0.0001351
2734.7	-0.0001308
2732.8	-0.0001264
2730.8	-0.0001256
2728.9	-0.0001226
2727.0	-0.0001194
2725.1	-0.0001241
2723.1	-0.0001312
2721.2	-0.0001339
2719.3	-0.0001306
2717.3	-0.0001265
2715.4	-0.0001300
2713.5	-0.0001366
2711.6	-0.0001366
2709.6	-0.0001344
2707.7	-0.0001375
2705.8	-0.0001431
2703.8	-0.0001441
2701.9	-0.0001395
2700.0	-0.0001360
2698.1	-0.0001371
2696.1	-0.0001420
2694.2	-0.0001483
2692.3	-0.0001462
2690.3	-0.0001338
2688.4	-0.0001276
2686.5	-0.0001316
2684.6	-0.0001314
2682.6	-0.0001233
2680.7	-0.0001186
2678.8	-0.0001223
2676.8	-0.0001288
2674.9	-0.0001344
2673.0	-0.0001383
2671.1	-0.0001373
2669.1	-0.0001313
2667.2	-0.0001284
2665.3	-0.0001295
2663.3	-0.0001277
2661.4	-0.0001243
2659.5	-0.0001232
2657.6	-0.0001261
2655.6	-0.0001315
2653.7	-0.0001326
2651.8	-0.0001281
2649.8	-0.0001232
2647.9	-0.0001226
2646.0	-0.0001250
2644.1	-0.0001227
2642.1	-0.0001141
2640.2	-0.0001082
2638.3	-0.0001132
2636.3	-0.0001257
2634.4	-0.0001350
2632.5	-0.0001360
2630.6	-0.0001351
2628.6	-0.0001356
2626.7	-0.0001323
2624.8	-0.0001246
2622.8	-0.0001164
2620.9	-0.0001134
2619.0	-0.0001200
2617.1	-0.0001292
2615.1	-0.0001321
2613.2	-0.0001339
2611.3	-0.0001403
2609.3	-0.0001421
2607.4	-0.0001355
2605.5	-0.0001295
2603.6	-0.0001295
2601.6	-0.0001363
2599.7	-0.0001454
2597.8	-0.0001463
2595.8	-0.0001376
2593.9	-0.0001306
2592.0	-0.0001305
2590.1	-0.0001301
2588.1	-0.0001271
2586.2	-0.0001221
2584.3	-0.0001146
2582.3	-0.0001109
2580.4	-0.0001146
2578.5	-0.0001221
2576.6	-0.0001305
2574.6	-0.0001336
2572.7	-0.0001262
2570.8	-0.0001167
2568.8	-0.0001174
2566.9	-0.0001233
2565.0	-0.0001221
2563.1	-0.0001142
2561.1	-0.0001075
2559.2	-0.0001066
2557.3	-0.0001137
2555.3	-0.0001239
2553.4	-0.0001286
2551.5	-0.0001262
2549.6	-0.0001199
2547.6	-0.0001139
2545.7	-0.0001108
2543.8	-0.0001089
2541.8	-0.0001111
2539.9	-0.0001195
2538.0	-0.0001244
2536.1	-0.0001203
2534.1	-0.0001129
2532.2	-0.0001054
2530.3	-0.0001015
2528.3	-0.0001037
2526.4	-0.0001070
2524.5	-0.0001079
2522.6	-0.0001061
2520.6	-0.0001045
2518.7	-0.0001057
2516.8	-0.0001078
2514.8	-0.0001112
2512.9	-0.0001117
2511.0	-0.0001070
2509.1	-0.0001050
2507.1	-0.0001043
2505.2	-0.0001005
2503.3	-0.0001024
2501.3	-0.0001124
2499.4	-0.0001202
2497.5	-0.0001215
2495.6	-0.0001217
2493.6	-0.0001229
2491.7	-0.0001230
2489.8	-0.0001208
2487.8	-0.0001188
2485.9	-0.0001194
2484.0	-0.0001186
2482.1	-0.0001174
2480.1	-0.0001188
2478.2	-0.0001197
2476.3	-0.0001160
2474.3	-0.0001114
2472.4	-0.0001157
2470.5	-0.0001277
2468.6	-0.0001361
2466.6	-0.0001333
2464.7	-0.0001234
2462.8	-0.0001168
2460.8	-0.0001196
2458.9	-0.0001262
2457.0	-0.0001282
2455.1	-0.0001297
2453.1	-0.0001339
2451.2	-0.0001363
2449.3	-0.0001354
2447.3	-0.0001322
2445.4	-0.0001274
2443.5	-0.0001217
2441.6	-0.0001185
2439.6	-0.0001207
2437.7	-0.0001243
2435.8	-0.0001279
2433.8	-0.0001314
2431.9	-0.0001313
2430.0	-0.0001281
2428.1	-0.0001261
2426.1	-0.0001233
2424.2	-0.0001210
2422.3	-0.0001288
2420.3	-0.0001402
2418.4	-0.0001419
2416.5	-0.0001409
2414.6	-0.0001424
2412.6	-0.0001406
2410.7	-0.0001372
2408.8	-0.0001352
2406.8	-0.0001336
2404.9	-0.0001343
2403.0	-0.0001366
2401.1	-0.0001363
2399.1	-0.0001326
2397.2	-0.0001284
2395.3	-0.0001267
2393.3	-0.0001289
2391.4	-0.0001346
2389.5	-0.0001372
2387.6	-0.0001329
2385.6	-0.0001283
2383.7	-0.0001311
2381.8	-0.0001399
2379.8	-0.0001441
2377.9	-0.0001418
2376.0	-0.0001413
2374.1	-0.0001397
2372.1	-0.0001304
2370.2	-0.0001203
2368.3	-0.0001188
2366.3	-0.0001248
2364.4	-0.0001303
2362.5	-0.0001308
2360.6	-0.0001296
2358.6	-0.0001302
2356.7	-0.0001317
2354.8	-0.0001349
2352.8	-0.0001426
2350.9	-0.0001493
2349.0	-0.0001468
2347.1	-0.0001386
2345.1	-0.0001337
2343.2	-0.0001330
2341.3	-0.0001331
2339.3	-0.0001298
2337.4	-0.0001222
2335.5	-0.0001159
2333.6	-0.0001122
2331.6	-0.0001083
2329.7	-0.0001075
2327.8	-0.0001132
2325.8	-0.0001218
2323.9	-0.0001253
2322.0	-0.0001207
2320.1	-0.0001149
2318.1	-0.0001126
2316.2	-0.0001125
2314.3	-0.0001153
2312.3	-0.0001208
2310.4	-0.0001242
2308.5	-0.0001248
2306.6	-0.0001250
2304.6	-0.0001263
2302.7	-0.0001300
2300.8	-0.0001339
2298.8	-0.0001337
2296.9	-0.0001329
2295.0	-0.0001362
2293.1	-0.0001382
2291.1	-0.0001367
2289.2	-0.0001369
2287.3	-0.0001386
2285.3	-0.0001373
2283.4	-0.0001312
2281.5	-0.0001251
2279.6	-0.0001232
2277.6	-0.0001257
2275.7	-0.0001337
2273.8	-0.0001427
2271.8	-0.0001435
2269.9	-0.0001365
2268.0	-0.0001327
2266.1	-0.0001360
2264.1	-0.0001402
2262.2	-0.0001394
2260.3	-0.0001361
2258.3	-0.0001349
2256.4	-0.0001342
2254.5	-0.0001315
2252.6	-0.0001270
2250.6	-0.0001236
2248.7	-0.0001236
2246.8	-0.0001279
2244.8	-0.0001370
2242.9	-0.0001480
2241.0	-0.0001541
2239.1	-0.0001529
2237.1	-0.0001500
2235.2	-0.0001511
2233.3	-0.0001562
2231.3	-0.0001604
2229.4	-0.0001610
2227.5	-0.0001602
2225.6	-0.0001572
2223.6	-0.0001505
2221.7	-0.0001427
2219.8	-0.0001414
2217.8	-0.0001454
2215.9	-0.0001457
2214.0	-0.0001428
2212.1	-0.0001400
2210.1	-0.0001388
2208.2	-0.0001388
2206.3	-0.0001384
2204.3	-0.0001352
2202.4	-0.0001313
2200.5	-0.0001320
2198.6	-0.0001335
2196.6	-0.0001333
2194.7	-0.0001341
2192.8	-0.0001359
2190.8	-0.0001353
2188.9	-0.0001328
2187.0	-0.0001332
2185.1	-0.0001326
2183.1	-0.0001295
2181.2	-0.0001289
2179.3	-0.0001316
2177.3	-0.0001331
2175.4	-0.0001331
2173.5	-0.0001331
2171.6	-0.0001279
2169.6	-0.0001213
2167.7	-0.0001154
2165.8	-0.0001089
2163.8	-0.0001028
2161.9	-0.0000986
2160.0	-0.0000979
2158.1	-0.0000965
2156.1	-0.0000982
2154.2	-0.0001026
2152.3	-0.0001020
2150.3	-0.0000918
2148.4	-0.0000771
2146.5	-0.0000658
2144.6	-0.0000518
2142.6	-0.0000380
2140.7	-0.0000300
2138.8	-0.0000212
2136.8	-0.0000012
2134.9	0.0000213
2133.0	0.0000327
2131.1	0.0000446
2129.1	0.0000648
2127.2	0.0000936
2125.3	0.0001274
2123.3	0.0001677
2121.4	0.0002139
2119.5	0.0002633
2117.6	0.0003281
2115.6	0.0004167
2113.7	0.0005406
2111.8	0.0007104
2109.8	0.0009624
2107.9	0.0013762
2106.0	0.0021579
2104.1	0.0039517
2102.1	0.0081359
2100.2	0.0146530
2098.3	0.0188373
2096.3	0.0163175
2094.4	0.0100252
2092.5	0.0049938
2090.6	0.0020527
2088.6	0.0002945
2086.7	-0.0004518
2084.8	-0.0003879
2082.8	-0.0000828
2080.9	0.0000986
2079.0	0.0001404
2077.1	0.0001209
2075.1	0.0000985
2073.2	0.0000859
2071.3	0.0000816
2069.3	0.0000819
2067.4	0.0000845
2065.5	0.0000882
2063.6	0.0000887
2061.6	0.0000895
2059.7	0.0000853
2057.8	0.0000809
2055.8	0.0000814
2053.9	0.0000830
2052.0	0.0000830
2050.1	0.0000770
2048.1	0.0000664
2046.2	0.0000552
2044.3	0.0000479
2042.3	0.0000377
2040.4	0.0000186
2038.5	-0.0000028
2036.6	-0.0000166
2034.6	-0.0000198
2032.7	-0.0000231
2030.8	-0.0000306
2028.8	-0.0000396
2026.9	-0.0000457
2025.0	-0.0000457
2023.1	-0.0000406
2021.1	-0.0000358
2019.2	-0.0000366
2017.3	-0.0000379
2015.3	-0.0000379
2013.4	-0.0000372
2011.5	-0.0000341
2009.6	-0.0000278
2007.6	-0.0000213
2005.7	-0.0000210
2003.8	-0.0000218
2001.8	-0.0000180
1999.9	-0.0000131
1998.0	-0.0000138
1996.1	-0.0000188
1994.1	-0.0000209
1992.2	-0.0000206
1990.3	-0.0000223
1988.3	-0.0000279
1986.4	-0.0000341
1984.5	-0.0000368
1982.6	-0.0000362
1980.6	-0.0000353
1978.7	-0.0000358
1976.8	-0.0000372
1974.8	-0.0000390
1972.9	-0.0000391
1971.0	-0.0000376
1969.1	-0.0000363
1967.1	-0.0000357
1965.2	-0.0000338
1963.3	-0.0000288
1961.4	-0.0000260
1959.4	-0.0000278
1957.5	-0.0000302
1955.6	-0.0000301
1953.6	-0.0000314
1951.7	-0.0000351
1949.8	-0.0000323
1947.9	-0.0000218
1945.9	-0.0000080
1944.0	0.0000057
1942.1	0.0000151
1940.1	0.0000221
1938.2	0.0000311
1936.3	0.0000374
1934.4	0.0000373
1932.4	0.0000355
1930.5	0.0000330
1928.6	0.0000315
1926.6	0.0000365
1924.7	0.0000463
1922.8	0.0000533
1920.9	0.0000594
1918.9	0.0000656
1917.0	0.0000632
1915.1	0.0000592
1913.1	0.0000662
1911.2	0.0000760
1909.3	0.0000850
1907.4	0.0001005
1905.4	0.0001276
1903.5	0.0001627
1901.6	0.0001981
1899.6	0.0002321
1897.7	0.0002660
1895.8	0.0002965
1893.9	0.0003188
1891.9	0.0003360
1890.0	0.0003511
1888.1	0.0003584
1886.1	0.0003563
1884.2	0.0003513
1882.3	0.0003425
1880.4	0.0003234
1878.4	0.0002968
1876.5	0.0002760
1874.6	0.0002747
1872.6	0.0003066
1870.7	0.0003764
1868.8	0.0004515
1866.9	0.0004897
1864.9	0.0004924
1863.0	0.0004749
1861.1	0.0004398
1859.1	0.0003967
1857.2	0.0003594
1855.3	0.0003267
1853.4	0.0002867
1851.4	0.0002458
1849.5	0.0002252
1847.6	0.0002393
1845.6	0.0002724
1843.7	0.0002629
1841.8	0.0001905
1839.9	0.0001147
1837.9	0.0000698
1836.0	0.0000415
1834.1	0.0000280
1832.1	0.0000362
1830.2	0.0000453
1828.3	0.0000362
1826.4	0.0000227
1824.4	0.0000090
1822.5	-0.0000104
1820.6	-0.0000235
1818.6	-0.0000249
1816.7	-0.0000209
1814.8	-0.0000176
1812.9	-0.0000147
1810.9	-0.0000161
1809.0	-0.0000284
1807.1	-0.0000391
1805.1	-0.0000340
1803.2	-0.0000171
1801.3	-0.0000052
1799.4	-0.0000084
1797.4	-0.0000151
1795.5	-0.0000032
1793.6	0.0000208
1791.6	0.0000221
1789.7	-0.0000029
1787.8	-0.0000215
1785.9	-0.0000250
1783.9	-0.0000294
1782.0	-0.0000372
1780.1	-0.0000408
1778.1	-0.0000378
1776.2	-0.0000101
1774.3	0.0000503
1772.4	0.0000872
1770.4	0.0000588
1768.5	0.0000118
1766.6	-0.0000151
1764.6	-0.0000191
1762.7	-0.0000077
1760.8	-0.0000049
1758.9	-0.0000107
1756.9	-0.0000145
1755.0	-0.0000078
1753.1	0.0000259
1751.1	0.0000562
1749.2	0.0000432
1747.3	0.0000127
1745.4	0.0000007
1743.4	0.0000099
1741.5	0.0000296
1739.6	0.0000408
1737.6	0.0000648
1735.7	0.0001274
1733.8	0.0001486
1731.9	0.0000804
1729.9	0.0000084
1728.0	-0.0000179
1726.1	-0.0000214
1724.1	-0.0000208
1722.2	-0.0000079
1720.3	0.0000554
1718.4	0.0001470
1716.4	0.0001675
1714.5	0.0001012
1712.6	0.0000303
1710.6	-0.0000002
1708.7	0.0000057
1706.8	0.0000304
1704.9	0.0000569
1702.9	0.0001095
1701.0	0.0001759
1699.1	0.0001901
1697.1	0.0001671
1695.2	0.0001241
1693.3	0.0000512
1691.4	0.0000034
1689.4	0.0000129
1687.5	0.0000921
1685.6	0.0001985
1683.6	0.0001930
1681.7	0.0000798
1679.8	0.0000014
1677.9	0.0000080
1675.9	0.0000442
1674.0	0.0000522
1672.1	0.0000502
1670.1	0.0000594
1668.2	0.0000450
1666.3	0.0000199
1664.4	0.0000249
1662.4	0.0000355
1660.5	0.0000251
1658.6	0.0000216
1656.6	0.0000989
1654.7	0.0002690
1652.8	0.0003446
1650.9	0.0002349
1648.9	0.0001448
1647.0	0.0001515
1645.1	0.0001258
1643.1	0.0000539
1641.2	0.0000125
1639.3	0.0000342
1637.4	0.0001052
1635.4	0.0001404
1633.5	0.0000859
1631.6	0.0000206
1629.6	0.0000078
1627.7	0.0000209
1625.8	0.0000369
1623.9	0.0000467
1621.9	0.0000428
1620.0	0.0000654
1618.1	0.0001311
1616.1	0.0001462
1614.2	0.0000805
1612.3	0.0000304
1610.4	0.0000289
1608.4	0.0000342
1606.5	0.0000303
1604.6	0.0000254
1602.6	0.0000247
1600.7	0.0000268
1598.8	0.0000281
1596.9	0.0000262
1594.9	0.0000237
1593.0	0.0000221
1591.1	0.0000226
1589.1	0.0000259
1587.2	0.0000280
1585.3	0.0000253
1583.4	0.0000220
1581.4	0.0000292
1579.5	0.0000788
1577.6	0.0001687
1575.6	0.0001936
1573.7	0.0001301
1571.8	0.0000983
1569.9	0.0001068
1567.9	0.0000843
1566.0	0.0000531
1564.1	0.0000654
1562.1	0.0001587
1560.2	0.0003016
1558.3	0.0003489
1556.4	0.0002665
1554.4	0.0001691
1552.5	0.0001059
1550.6	0.0000712
1548.6	0.0000662
1546.7	0.0000932
1544.8	0.0001567
1542.9	0.0002523
1540.9	0.0003290
1539.0	0.0002928
1537.1	0.0001819
1535.1	0.0001317
1533.2	0.0001280
1531.3	0.0000984
1529.4	0.0000722
1527.4	0.0000781
1525.5	0.0001092
1523.6	0.0001704
1521.6	0.0002143
1519.7	0.0001861
1517.8	0.0001290
1515.9	0.0000911
1513.9	0.0000731
1512.0	0.0000811
1510.1	0.0001434
1508.1	0.0002591
1506.2	0.0003063
1504.3	0.0002080
1502.4	0.0000947
1500.4	0.0000746
1498.5	0.0001074
1496.6	0.0001205
1494.6	0.0000955
1492.7	0.0000776
1490.8	0.0000868
1488.9	0.0000843
1486.9	0.0000549
1485.0	0.0000272
1483.1	0.0000207
1481.1	0.0000271
1479.2	0.0000414
1477.3	0.0000682
1475.4	0.0001033
1473.4	0.0001279
1471.5	0.0001109
1469.6	0.0000657
1467.6	0.0000537
1465.7	0.0000748
1463.8	0.0000721
1461.9	0.0000592
1459.9	0.0001124
1458.0	0.0002043
1456.1	0.0002062
1454.1	0.0001180
1452.2	0.0000539
1450.3	0.0000450
1448.4	0.0000481
1446.4	0.0000317
1444.5	0.0000069
1442.6	0.0000015
1440.6	0.0000264
1438.7	0.0000787
1436.8	0.0001112
1434.9	0.0000818
1432.9	0.0000406
1431.0	0.0000329
1429.1	0.0000359
1427.1	0.0000352
1425.2	0.0000359
1423.3	0.0000478
1421.4	0.0000874
1419.4	0.0001202
1417.5	0.0000943
1415.6	0.0000459
1413.6	0.0000254
1411.7	0.0000249
1409.8	0.0000263
1407.9	0.0000309
1405.9	0.0000389
1404.0	0.0000364
1402.1	0.0000355
1400.1	0.0000557
1398.2	0.0000773
1396.3	0.0000859
1394.4	0.0000784
1392.4	0.0000509
1390.5	0.0000321
1388.6	0.0000354
1386.6	0.0000319
1384.7	0.0000139
1382.8	0.0000031
1380.9	0.0000086
1378.9	0.0000208
1377.0	0.0000309
1375.1	0.0000353
1373.1	0.0000325
1371.2	0.0000282
1369.3	0.0000272
1367.4	0.0000243
1365.4	0.0000222
1363.5	0.0000267
1361.6	0.0000284
1359.6	0.0000225
1357.7	0.0000191
1355.8	0.0000207
1353.9	0.0000183
1351.9	0.0000155
1350.0	0.0000182
1348.1	0.0000166
1346.1	0.0000105
1344.2	0.0000160
1342.3	0.0000345
1340.4	0.0000477
1338.4	0.0000426
1336.5	0.0000270
1334.6	0.0000154
1332.6	0.0000113
1330.7	0.0000103
1328.8	0.0000106
1326.9	0.0000137
1324.9	0.0000196
1323.0	0.0000229
1321.1	0.0000191
1319.1	0.0000117
1317.2	0.0000045
1315.3	-0.0000005
1313.4	-0.0000022
1311.4	0.0000006
1309.5	0.0000030
1307.6	0.0000005
1305.6	-0.0000030
1303.7	-0.0000047
1301.8	-0.0000039
1299.9	-0.0000004
1297.9	0.0000028
1296.0	0.0000035
1294.1	0.0000025
1292.1	0.0000025
1290.2	0.0000048
1288.3	0.0000072
1286.4	0.0000061
1284.4	0.0000011
1282.5	-0.0000030
1280.6	-0.0000034
1278.6	-0.0000019
1276.7	-0.0000010
1274.8	-0.0000031
1272.9	-0.0000065
1270.9	-0.0000058
1269.0	0.0000007
1267.1	0.0000096
1265.1	0.0000180
1263.2	0.0000252
1261.3	0.0000274
1259.4	0.0000218
1257.4	0.0000123
1255.5	0.0000056
1253.6	0.0000086
1251.6	0.0000192
1249.7	0.0000260
1247.8	0.0000232
1245.9	0.0000131
1243.9	0.0000050
1242.0	0.0000030
1240.1	0.0000004
1238.1	-0.0000012
1236.2	0.0000017
1234.3	0.0000017
1232.4	-0.0000031
1230.4	-0.0000051
1228.5	-0.0000005
1226.6	0.0000076
1224.6	0.0000128
1222.7	0.0000105
1220.8	0.0000018
1218.9	-0.0000083
1216.9	-0.0000140
1215.0	-0.0000123
1213.1	-0.0000060
1211.1	-0.0000003
1209.2	-0.0000010
1207.3	-0.0000070
1205.4	-0.0000090
1203.4	-0.0000108
1201.5	-0.0000168
1199.6	-0.0000155
1197.6	-0.0000066
1195.7	-0.0000055
1193.8	-0.0000125
1191.9	-0.0000153
1189.9	-0.0000110
1188.0	-0.0000047
1186.1	-0.0000028
1184.1	-0.0000094
1182.2	-0.0000165
1180.3	-0.0000095
1178.4	0.0000046
1176.4	0.0000022
1174.5	-0.0000156
1172.6	-0.0000278
1170.6	-0.0000329
1168.7	-0.0000388
1166.8	-0.0000418
1164.9	-0.0000421
1162.9	-0.0000431
1161.0	-0.0000406
1159.1	-0.0000303
1157.1	-0.0000174
1155.2	-0.0000109
1153.3	-0.0000129
1151.4	-0.0000215
1149.4	-0.0000303
1147.5	-0.0000319
1145.6	-0.0000287
1143.6	-0.0000244
1141.7	-0.0000170
1139.8	-0.0000110
1137.9	-0.0000111
1135.9	-0.0000131
1134.0	-0.0000168
1132.1	-0.0000233
1130.1	-0.0000285
1128.2	-0.0000304
1126.3	-0.0000296
1124.4	-0.0000285
1122.4	-0.0000317
1120.5	-0.0000363
1118.6	-0.0000343
1116.6	-0.0000279
1114.7	-0.0000216
1112.8	-0.0000150
1110.9	-0.0000148
1108.9	-0.0000238
1107.0	-0.0000306
1105.1	-0.0000302
1103.1	-0.0000316
1101.2	-0.0000383
1099.3	-0.0000442
1097.4	-0.0000468
1095.4	-0.0000479
1093.5	-0.0000469
1091.6	-0.0000443
1089.6	-0.0000425
1087.7	-0.0000439
1085.8	-0.0000458
1083.9	-0.0000476
1081.9	-0.0000532
1080.0	-0.0000618
1078.1	-0.0000686
1076.1	-0.0000700
1074.2	-0.0000637
1072.3	-0.0000524
1070.4	-0.0000446
1068.4	-0.0000477
1066.5	-0.0000588
1064.6	-0.0000658
1062.6	-0.0000615
1060.7	-0.0000532
1058.8	-0.0000525
1056.9	-0.0000601
1054.9	-0.0000660
1053.0	-0.0000642
1051.1	-0.0000606
1049.1	-0.0000590
1047.2	-0.0000588
1045.3	-0.0000609
1043.4	-0.0000643
1041.4	-0.0000661
1039.5	-0.0000660
1037.6	-0.0000681
1035.6	-0.0000755
1033.7	-0.0000817
1031.8	-0.0000797
1029.9	-0.0000739
1027.9	-0.0000719
1026.0	-0.0000762
1024.1	-0.0000829
1022.1	-0.0000802
1020.2	-0.0000659
1018.3	-0.0000521
1016.4	-0.0000473
1014.4	-0.0000506
1012.5	-0.0000548
1010.6	-0.0000556
1008.6	-0.0000556
1006.7	-0.0000568
1004.8	-0.0000560
1002.9	-0.0000536
1000.9	-0.0000558
999.0	-0.0000636
997.1	-0.0000729
995.1	-0.0000802
993.2	-0.0000803
991.3	-0.0000745
989.4	-0.0000695
987.4	-0.0000689
985.5	-0.0000760
983.6	-0.0000852
981.6	-0.0000851
979.7	-0.0000757
977.8	-0.0000648
975.9	-0.0000629
973.9	-0.0000754
972.0	-0.0000928
970.1	-0.0001039
968.1	-0.0001053
966.2	-0.0001025
964.3	-0.0001063
962.4	-0.0001093
960.4	-0.0001023
958.5	-0.0001030
956.6	-0.0001119
954.6	-0.0001081
952.7	-0.0001008
950.8	-0.0001028
948.9	-0.0001089
946.9	-0.0001148
945.0	-0.0001141
943.1	-0.0001042
941.1	-0.0000954
939.2	-0.0000906
937.3	-0.0000871
935.4	-0.0000929
933.4	-0.0001051
931.5	-0.0001128
929.6	-0.0001194
927.6	-0.0001277
925.7	-0.0001340
923.8	-0.0001360
921.9	-0.0001337
919.9	-0.0001337
918.0	-0.0001387
916.1	-0.0001407
914.1	-0.0001386
912.2	-0.0001357
910.3	-0.0001286
908.4	-0.0001193
906.4	-0.0001164
904.5	-0.0001235
902.6	-0.0001320
900.6	-0.0001317
898.7	-0.0001310
896.8	-0.0001402
894.9	-0.0001470
892.9	-0.0001342
891.0	-0.0001154
889.1	-0.0001076
887.1	-0.0001034
885.2	-0.0001034
883.3	-0.0001074
881.4	-0.0001134
879.4	-0.0001292
877.5	-0.0001427
875.6	-0.0001390
873.6	-0.0001231
871.7	-0.0001093
869.8	-0.0001049
867.9	-0.0001103
865.9	-0.0001259
864.0	-0.0001337
862.1	-0.0001147
860.1	-0.0000920
858.2	-0.0001095
856.3	-0.0001617
854.4	-0.0001828
852.4	-0.0001395
850.5	-0.0000898
848.6	-0.0000839
846.6	-0.0000903
844.7	-0.0000760
842.8	-0.0000663
840.9	-0.0000792
838.9	-0.0000855
837.0	-0.0000599
835.1	-0.0000358
833.1	-0.0000500
831.2	-0.0000676
829.3	-0.0000580
827.4	-0.0000583
825.4	-0.0000852
823.5	-0.0000980
821.6	-0.0000805
819.6	-0.0000704
817.7	-0.0000925
815.8	-0.0001199
813.9	-0.0001198
811.9	-0.0000988
810.0	-0.0000688
808.1	-0.0000256
806.1	0.0000027
804.2	-0.0000188
802.3	-0.0000675
800.4	-0.0000848
798.4	-0.0000522
796.5	-0.0000291
794.6	-0.0000324
792.6	-0.0000139
790.7	-0.0000035
788.8	-0.0000381
786.9	-0.0000667
784.9	-0.0000648
783.0	-0.0000643
781.1	-0.0000826
779.1	-0.0000977
777.2	-0.0000730
775.3	-0.0000481
773.4	-0.0000998
771.4	-0.0001530
769.5	-0.0001009
767.6	-0.0000399
765.6	-0.0000558
763.7	-0.0000658
761.8	-0.0000291
759.9	0.0000146
757.9	0.0000542
756.0	0.0000712
754.1	0.0000216
752.1	-0.0000571
750.2	-0.0001000
748.3	-0.0001160
746.4	-0.0001052
744.4	-0.0000704
742.5	-0.0000727
740.6	-0.0001410
738.6	-0.0002483
736.7	-0.0003260
734.8	-0.0003193
732.9	-0.0002885
730.9	-0.0003002
729.0	-0.0002946
727.1	-0.0002585
725.1	-0.0002603
723.2	-0.0003275
721.3	-0.0004419
719.4	-0.0005618
717.4	-0.0006569
715.5	-0.0006718
713.6	-0.0005976
711.6	-0.0005594
709.7	-0.0005955
707.8	-0.0006227
705.9	-0.0006366
703.9	-0.0006842
702.0	-0.0007335
700.1	-0.0007689
698.1	-0.0008319
696.2	-0.0008851
694.3	-0.0008536
692.4	-0.0007742
690.4	-0.0007749
688.5	-0.0008177
686.6	-0.0007923
684.6	-0.0007879
682.7	-0.0008249
680.8	-0.0008327
678.9	-0.0007944
676.9	-0.0007182
675.0	-0.0006831
673.1	-0.0007149
671.1	-0.0007027
669.2	-0.0005978
667.3	-0.0005059
665.4	-0.0004939
663.4	-0.0005699
661.5	-0.0007703
659.6	-0.0010386
657.6	-0.0012207
655.7	-0.0011463
653.8	-0.0008564
651.9	-0.0006803
649.9	-0.0007388
648.0	-0.0008219
646.1	-0.0008123
644.1	-0.0007876
642.2	-0.0008035
640.3	-0.0008419
638.4	-0.0008350
636.4	-0.0007284
634.5	-0.0006146
632.6	-0.0006440
630.6	-0.0007885
628.7	-0.0008706
626.8	-0.0008461
624.9	-0.0007873
622.9	-0.0007552
621.0	-0.0008506
619.1	-0.0009742
617.1	-0.0009356
615.2	-0.0008674
613.3	-0.0009032
611.4	-0.0009401
609.4	-0.0008982
607.5	-0.0007892
605.6	-0.0007213
603.6	-0.0007647
601.7	-0.0007813
599.8	-0.0007661
