3997.9	0.0000304
3996.0	0.0000250
3994.1	0.0000227
3992.1	0.0000266
3990.2	0.0000344
3988.3	0.0000391
3986.3	0.0000387
3984.4	0.0000361
3982.5	0.0000304
3980.6	0.0000181
3978.6	0.0000128
3976.7	0.0000257
3974.8	0.0000380
3972.8	0.0000307
3970.9	0.0000163
3969.0	0.0000161
3967.1	0.0000226
3965.1	0.0000188
3963.2	0.0000060
3961.3	-0.0000053
3959.3	-0.0000106
3957.4	-0.0000148
3955.5	-0.0000176
3953.6	-0.0000106
3951.6	0.0000014
3949.7	0.0000058
3947.8	0.0000045
3945.8	0.0000013
3943.9	-0.0000070
3942.0	-0.0000152
3940.1	-0.0000176
3938.1	-0.0000149
3936.2	-0.0000051
3934.3	0.0000096
3932.3	0.0000197
3930.4	0.0000155
3928.5	0.0000014
3926.6	-0.0000071
3924.6	-0.0000010
3922.7	0.0000111
3920.8	0.0000162
3918.8	0.0000113
3916.9	0.0000006
3915.0	-0.0000106
3913.1	-0.0000158
3911.1	-0.0000166
3909.2	-0.0000192
3907.3	-0.0000162
3905.3	-0.0000014
3903.4	0.0000094
3901.5	0.0000086
3899.6	0.0000060
3897.6	0.0000005
3895.7	-0.0000096
3893.8	-0.0000144
3891.8	-0.0000128
3889.9	-0.0000098
3888.0	-0.0000043
3886.1	0.0000002
3884.1	0.0000002
3882.2	0.0000025
3880.3	0.0000056
3878.3	0.0000030
3876.4	-0.0000029
3874.5	-0.0000086
3872.6	-0.0000043
3870.6	0.0000074
3868.7	0.0000065
3866.8	0.0000013
3864.8	0.0000053
3862.9	0.0000028
3861.0	-0.0000141
3859.1	-0.0000243
3857.1	-0.0000043
3855.2	0.0000345
3853.3	0.0000499
3851.3	0.0000260
3849.4	-0.0000060
3847.5	-0.0000194
3845.6	-0.0000195
3843.6	-0.0000124
3841.7	0.0000034
3839.8	0.0000161
3837.8	0.0000170
3835.9	0.0000146
3834.0	0.0000136
3832.1	0.0000085
3830.1	-0.0000007
3828.2	-0.0000075
3826.3	-0.0000107
3824.3	-0.0000149
3822.4	-0.0000190
3820.5	-0.0000160
3818.6	-0.0000054
3816.6	0.0000029
3814.7	0.0000018
3812.8	0.0000014
3810.8	0.0000099
3808.9	0.0000215
3807.0	0.0000283
3805.1	0.0000298
3803.1	0.0000286
3801.2	0.0000210
3799.3	0.0000098
3797.3	0.0000044
3795.4	0.0000026
3793.5	0.0000024
3791.6	0.0000016
3789.6	-0.0000059
3787.7	-0.0000119
3785.8	-0.0000066
3783.8	0.0000014
3781.9	0.0000025
3780.0	-0.0000022
3778.1	-0.0000071
3776.1	-0.0000042
3774.2	0.0000047
3772.3	0.0000078
3770.3	0.0000046
3768.4	0.0000068
3766.5	0.0000156
3764.6	0.0000189
3762.6	0.0000178
3760.7	0.0000223
3758.8	0.0000221
3756.8	0.0000106
3754.9	0.0000018
3753.0	0.0000052
3751.1	0.0000215
3749.1	0.0000409
3747.2	0.0000583
3745.3	0.0000691
3743.3	0.0000600
3741.4	0.0000449
3739.5	0.0000383
3737.6	0.0000306
3735.6	0.0000264
3733.7	0.0000303
3731.8	0.0000296
3729.8	0.0000240
3727.9	0.0000239
3726.0	0.0000285
3724.1	0.0000318
3722.1	0.0000369
3720.2	0.0000445
3718.3	0.0000499
3716.3	0.0000502
3714.4	0.0000509
3712.5	0.0000496
3710.6	0.0000344
3708.6	0.0000111
3706.7	-0.0000041
3704.8	-0.0000027
3702.8	0.0000099
3700.9	0.0000183
3699.0	0.0000195
3697.1	0.0000196
3695.1	0.0000237
3693.2	0.0000347
3691.3	0.0000476
3689.3	0.0000486
3687.4	0.0000302
3685.5	0.0000112
3683.6	0.0000133
3681.6	0.0000235
3679.7	0.0000240
3677.8	0.0000275
3675.8	0.0000381
3673.9	0.0000391
3672.0	0.0000299
3670.1	0.0000180
3668.1	0.0000058
3666.2	-0.0000018
3664.3	-0.0000034
3662.3	-0.0000021
3660.4	0.0000016
3658.5	0.0000110
3656.6	0.0000194
3654.6	0.0000149
3652.7	0.0000072
3650.8	0.0000070
3648.8	0.0000074
3646.9	0.0000058
3645.0	0.0000032
3643.1	-0.0000049
3641.1	-0.0000172
3639.2	-0.0000238
3637.3	-0.0000152
3635.3	0.0000037
3633.4	0.0000165
3631.5	0.0000176
3629.6	0.0000120
3627.6	0.0000005
3625.7	-0.0000126
3623.8	-0.0000167
3621.8	-0.0000110
3619.9	-0.0000033
3618.0	0.0000029
3616.1	0.0000093
3614.1	0.0000196
3612.2	0.0000327
3610.3	0.0000391
3608.3	0.0000277
3606.4	0.0000067
3604.5	0.0000003
3602.6	0.0000091
3600.6	0.0000135
3598.7	0.0000085
3596.8	-0.0000012
3594.8	-0.0000125
3592.9	-0.0000243
3591.0	-0.0000354
3589.1	-0.0000396
3587.1	-0.0000304
3585.2	-0.0000151
3583.3	-0.0000057
3581.3	-0.0000080
3579.4	-0.0000205
3577.5	-0.0000330
3575.6	-0.0000352
3573.6	-0.0000290
3571.7	-0.0000215
3569.8	-0.0000112
3567.8	0.0000022
3565.9	0.0000095
3564.0	0.0000064
3562.1	-0.0000010
3560.1	-0.0000026
3558.2	0.0000013
3556.3	-0.0000048
3554.3	-0.0000190
3552.4	-0.0000258
3550.5	-0.0000251
3548.6	-0.0000217
3546.6	-0.0000189
3544.7	-0.0000233
3542.8	-0.0000303
3540.8	-0.0000298
3538.9	-0.0000186
3537.0	-0.0000053
3535.1	-0.0000050
3533.1	-0.0000170
3531.2	-0.0000235
3529.3	-0.0000170
3527.3	-0.0000069
3525.4	-0.0000060
3523.5	-0.0000125
3521.6	-0.0000115
3519.6	-0.0000042
3517.7	-0.0000045
3515.8	-0.0000148
3513.8	-0.0000274
3511.9	-0.0000307
3510.0	-0.0000183
3508.1	-0.0000030
3506.1	-0.0000007
3504.2	-0.0000107
3502.3	-0.0000196
3500.3	-0.0000190
3498.4	-0.0000104
3496.5	0.0000043
3494.6	0.0000175
3492.6	0.0000162
3490.7	0.0000037
3488.8	-0.0000038
3486.8	-0.0000041
3484.9	-0.0000068
3483.0	-0.0000104
3481.1	-0.0000082
3479.1	0.0000020
3477.2	0.0000119
3475.3	0.0000108
3473.3	0.0000081
3471.4	0.0000125
3469.5	0.0000175
3467.6	0.0000230
3465.6	0.0000281
3463.7	0.0000260
3461.8	0.0000217
3459.8	0.0000192
3457.9	0.0000160
3456.0	0.0000132
3454.1	0.0000123
3452.1	0.0000130
3450.2	0.0000124
3448.3	0.0000085
3446.3	0.0000074
3444.4	0.0000068
3442.5	0.0000066
3440.6	0.0000134
3438.6	0.0000222
3436.7	0.0000232
3434.8	0.0000182
3432.8	0.0000133
3430.9	0.0000074
3429.0	0.0000027
3427.1	0.0000065
3425.1	0.0000138
3423.2	0.0000177
3421.3	0.0000215
3419.3	0.0000231
3417.4	0.0000171
3415.5	0.0000081
3413.6	0.0000057
3411.6	0.0000142
3409.7	0.0000234
3407.8	0.0000200
3405.8	0.0000145
3403.9	0.0000169
3402.0	0.0000190
3400.1	0.0000190
3398.1	0.0000192
3396.2	0.0000116
3394.3	0.0000001
3392.3	-0.0000008
3390.4	0.0000019
3388.5	-0.0000069
3386.6	-0.0000159
3384.6	-0.0000083
3382.7	0.0000058
3380.8	0.0000101
3378.8	0.0000049
3376.9	-0.0000024
3375.0	-0.0000036
3373.1	0.0000061
3371.1	0.0000167
3369.2	0.0000150
3367.3	0.0000033
3365.3	-0.0000103
3363.4	-0.0000179
3361.5	-0.0000113
3359.6	0.0000038
3357.6	0.0000129
3355.7	0.0000151
3353.8	0.0000113
3351.8	0.0000009
3349.9	-0.0000083
3348.0	-0.0000107
3346.1	-0.0000095
3344.1	-0.0000040
3342.2	0.0000050
3340.3	0.0000066
3338.3	-0.0000016
3336.4	-0.0000075
3334.5	-0.0000063
3332.6	-0.0000029
3330.6	-0.0000020
3328.7	-0.0000006
3326.8	0.0000041
3324.8	0.0000061
3322.9	-0.0000001
3321.0	-0.0000082
3319.1	-0.0000066
3317.1	0.0000014
3315.2	0.0000033
3313.3	-0.0000011
3311.3	-0.0000065
3309.4	-0.0000108
3307.5	-0.0000113
3305.6	-0.0000072
3303.6	-0.0000032
3301.7	-0.0000048
3299.8	-0.0000131
3297.8	-0.0000238
3295.9	-0.0000310
3294.0	-0.0000279
3292.1	-0.0000128
3290.1	0.0000021
3288.2	0.0000075
3286.3	0.0000065
3284.3	0.0000013
3282.4	-0.0000063
3280.5	-0.0000149
3278.6	-0.0000189
3276.6	-0.0000118
3274.7	0.0000006
3272.8	0.0000041
3270.8	0.0000008
3268.9	0.0000017
3267.0	0.0000095
3265.1	0.0000209
3263.1	0.0000236
3261.2	0.0000129
3259.3	0.0000049
3257.3	0.0000077
3255.4	0.0000120
3253.5	0.0000104
3251.6	0.0000026
3249.6	-0.0000050
3247.7	-0.0000041
3245.8	0.0000015
3243.8	0.0000014
3241.9	-0.0000022
3240.0	0.0000010
3238.1	0.0000121
3236.1	0.0000242
3234.2	0.0000276
3232.3	0.0000213
3230.3	0.0000130
3228.4	0.0000034
3226.5	-0.0000061
3224.6	-0.0000075
3222.6	-0.0000039
3220.7	0.0000001
3218.8	0.0000114
3216.8	0.0000203
3214.9	0.0000114
3213.0	-0.0000022
3211.1	-0.0000033
3209.1	0.0000018
3207.2	0.0000067
3205.3	0.0000132
3203.3	0.0000147
3201.4	0.0000047
3199.5	-0.0000070
3197.6	-0.0000092
3195.6	-0.0000068
3193.7	-0.0000091
3191.8	-0.0000112
3189.8	-0.0000073
3187.9	-0.0000064
3186.0	-0.0000114
3184.1	-0.0000077
3182.1	0.0000083
3180.2	0.0000184
3178.3	0.0000143
3176.3	0.0000073
3174.4	0.0000019
3172.5	-0.0000000
3170.6	0.0000027
3168.6	0.0000006
3166.7	-0.0000027
3164.8	0.0000045
3162.8	0.0000133
3160.9	0.0000132
3159.0	0.0000079
3157.1	0.0000043
3155.1	0.0000038
3153.2	0.0000043
3151.3	0.0000030
3149.3	-0.0000027
3147.4	-0.0000093
3145.5	-0.0000074
3143.6	0.0000028
3141.6	0.0000082
3139.7	0.0000041
3137.8	-0.0000012
3135.8	-0.0000019
3133.9	-0.0000025
3132.0	-0.0000077
3130.1	-0.0000117
3128.1	-0.0000102
3126.2	-0.0000080
3124.3	-0.0000068
3122.3	-0.0000030
3120.4	0.0000016
3118.5	0.0000029
3116.6	0.0000009
3114.6	-0.0000009
3112.7	0.0000018
3110.8	0.0000040
3108.8	0.0000001
3106.9	-0.0000041
3105.0	-0.0000052
3103.1	-0.0000072
3101.1	-0.0000102
3099.2	-0.0000134
3097.3	-0.0000171
3095.3	-0.0000176
3093.4	-0.0000127
3091.5	-0.0000067
3089.6	-0.0000050
3087.6	-0.0000085
3085.7	-0.0000105
3083.8	-0.0000088
3081.8	-0.0000126
3079.9	-0.0000223
3078.0	-0.0000263
3076.1	-0.0000206
3074.1	-0.0000141
3072.2	-0.0000122
3070.3	-0.0000091
3068.3	-0.0000075
3066.4	-0.0000111
3064.5	-0.0000123
3062.6	-0.0000117
3060.6	-0.0000140
3058.7	-0.0000138
3056.8	-0.0000088
3054.8	-0.0000069
3052.9	-0.0000099
3051.0	-0.0000119
3049.1	-0.0000080
3047.1	-0.0000003
3045.2	0.0000040
3043.3	-0.0000016
3041.3	-0.0000138
3039.4	-0.0000203
3037.5	-0.0000204
3035.6	-0.0000214
3033.6	-0.0000188
3031.7	-0.0000112
3029.8	-0.0000091
3027.8	-0.0000154
3025.9	-0.0000192
3024.0	-0.0000127
3022.1	-0.0000070
3020.1	-0.0000131
3018.2	-0.0000261
3016.3	-0.0000355
3014.3	-0.0000312
3012.4	-0.0000145
3010.5	0.0000007
3008.6	0.0000043
3006.6	0.0000005
3004.7	0.0000001
3002.8	0.0000016
3000.8	-0.0000018
2998.9	-0.0000044
2997.0	0.0000003
2995.1	0.0000074
2993.1	0.0000089
2991.2	0.0000003
2989.3	-0.0000137
2987.3	-0.0000224
2985.4	-0.0000218
2983.5	-0.0000166
2981.6	-0.0000106
2979.6	-0.0000034
2977.7	0.0000019
2975.8	0.0000042
2973.8	0.0000057
2971.9	0.0000044
2970.0	0.0000008
2968.1	-0.0000016
2966.1	-0.0000042
2964.2	-0.0000053
2962.3	-0.0000035
2960.3	-0.0000008
2958.4	0.0000046
2956.5	0.0000119
2954.6	0.0000136
2952.6	0.0000071
2950.7	-0.0000017
2948.8	-0.0000062
2946.8	-0.0000046
2944.9	0.0000028
2943.0	0.0000104
2941.1	0.0000064
2939.1	-0.0000089
2937.2	-0.0000211
2935.3	-0.0000221
2933.3	-0.0000154
2931.4	-0.0000101
2929.5	-0.0000087
2927.6	-0.0000033
2925.6	0.0000044
2923.7	0.0000039
2921.8	0.0000001
2919.8	-0.0000024
2917.9	-0.0000048
2916.0	-0.0000044
2914.1	-0.0000041
2912.1	-0.0000079
2910.2	-0.0000118
2908.3	-0.0000096
2906.3	-0.0000013
2904.4	0.0000073
2902.5	0.0000110
2900.6	0.0000047
2898.6	-0.0000085
2896.7	-0.0000125
2894.8	-0.0000043
2892.8	-0.0000004
2890.9	-0.0000062
2889.0	-0.0000109
2887.1	-0.0000094
2885.1	-0.0000059
2883.2	-0.0000038
2881.3	-0.0000045
2879.3	-0.0000054
2877.4	-0.0000026
2875.5	0.0000018
2873.6	0.0000010
2871.6	-0.0000016
2869.7	0.0000015
2867.8	0.0000041
2865.8	-0.0000021
2863.9	-0.0000116
2862.0	-0.0000144
2860.1	-0.0000090
2858.1	-0.0000022
2856.2	0.0000008
2854.3	0.0000053
2852.3	0.0000157
2850.4	0.0000193
2848.5	0.0000116
2846.6	0.0000062
2844.6	0.0000075
2842.7	0.0000101
2840.8	0.0000109
2838.8	0.0000102
2836.9	0.0000091
2835.0	0.0000052
2833.1	0.0000007
2831.1	0.0000013
2829.2	0.0000027
2827.3	0.0000018
2825.3	0.0000017
2823.4	0.0000023
2821.5	0.0000044
2819.6	0.0000055
2817.6	0.0000003
2815.7	-0.0000017
2813.8	0.0000049
2811.8	0.0000072
2809.9	0.0000022
2808.0	-0.0000013
2806.1	-0.0000018
2804.1	-0.0000026
2802.2	-0.0000037
2800.3	-0.0000022
2798.3	-0.0000002
2796.4	0.0000001
2794.5	0.0000018
2792.6	0.0000050
2790.6	0.0000069
2788.7	0.0000083
2786.8	0.0000089
2784.8	0.0000081
2782.9	0.0000089
2781.0	0.0000126
2779.1	0.0000139
2777.1	0.0000123
2775.2	0.0000132
2773.3	0.0000153
2771.3	0.0000157
2769.4	0.0000156
2767.5	0.0000130
2765.6	0.0000090
2763.6	0.0000085
2761.7	0.0000092
2759.8	0.0000078
2757.8	0.0000067
2755.9	0.0000057
2754.0	0.0000082
2752.1	0.0000180
2750.1	0.0000284
2748.2	0.0000320
2746.3	0.0000285
2744.3	0.0000199
2742.4	0.0000130
2740.5	0.0000116
2738.6	0.0000096
2736.6	0.0000070
2734.7	0.0000109
2732.8	0.0000153
2730.8	0.0000146
2728.9	0.0000156
2727.0	0.0000187
2725.1	0.0000188
2723.1	0.0000178
2721.2	0.0000173
2719.3	0.0000188
2717.3	0.0000242
2715.4	0.0000259
2713.5	0.0000201
2711.6	0.0000157
2709.6	0.0000156
2707.7	0.0000132
2705.8	0.0000088
2703.8	0.0000059
2701.9	0.0000045
2700.0	0.0000037
2698.1	0.0000019
2696.1	-0.0000010
2694.2	-0.0000020
2692.3	0.0000017
2690.3	0.0000053
2688.4	0.0000017
2686.5	-0.0000041
2684.6	-0.0000014
2682.6	0.0000088
2680.7	0.0000181
2678.8	0.0000205
2676.8	0.0000156
2674.9	0.0000082
2673.0	0.0000032
2671.1	0.0000035
2669.1	0.0000078
2667.2	0.0000087
2665.3	0.0000073
2663.3	0.0000106
2661.4	0.0000143
2659.5	0.0000141
2657.6	0.0000130
2655.6	0.0000123
2653.7	0.0000128
2651.8	0.0000162
2649.8	0.0000216
2647.9	0.0000239
2646.0	0.0000217
2644.1	0.0000195
2642.1	0.0000198
2640.2	0.0000201
2638.3	0.0000189
2636.3	0.0000170
2634.4	0.0000139
2632.5	0.0000101
2630.6	0.0000073
2628.6	0.0000050
2626.7	0.0000042
2624.8	0.0000080
2622.8	0.0000153
2620.9	0.0000216
2619.0	0.0000233
2617.1	0.0000203
2615.1	0.0000161
2613.2	0.0000114
2611.3	0.0000067
2609.3	0.0000051
2607.4	0.0000050
2605.5	0.0000038
2603.6	0.0000043
2601.6	0.0000053
2599.7	0.0000007
2597.8	-0.0000041
2595.8	0.0000015
2593.9	0.0000097
2592.0	0.0000110
2590.1	0.0000090
2588.1	0.0000060
2586.2	0.0000063
2584.3	0.0000146
2582.3	0.0000229
2580.4	0.0000244
2578.5	0.0000212
2576.6	0.0000168
2574.6	0.0000153
2572.7	0.0000175
2570.8	0.0000189
2568.8	0.0000146
2566.9	0.0000049
2565.0	-0.0000012
2563.1	0.0000036
2561.1	0.0000155
2559.2	0.0000241
2557.3	0.0000239
2555.3	0.0000189
2553.4	0.0000136
2551.5	0.0000095
2549.6	0.0000096
2547.6	0.0000144
2545.7	0.0000202
2543.8	0.0000235
2541.8	0.0000242
2539.9	0.0000235
2538.0	0.0000208
2536.1	0.0000193
2534.1	0.0000245
2532.2	0.0000318
2530.3	0.0000312
2528.3	0.0000240
2526.4	0.0000210
2524.5	0.0000253
2522.6	0.0000281
2520.6	0.0000231
2518.7	0.0000179
2516.8	0.0000176
2514.8	0.0000176
2512.9	0.0000164
2511.0	0.0000152
2509.1	0.0000135
2507.1	0.0000160
2505.2	0.0000233
2503.3	0.0000280
2501.3	0.0000267
2499.4	0.0000211
2497.5	0.0000146
2495.6	0.0000117
2493.6	0.0000136
2491.7	0.0000174
2489.8	0.0000186
2487.8	0.0000127
2485.9	0.0000039
2484.0	0.0000033
2482.1	0.0000089
2480.1	0.0000124
2478.2	0.0000151
2476.3	0.0000165
2474.3	0.0000134
2472.4	0.0000056
2470.5	-0.0000016
2468.6	-0.0000023
2466.6	0.0000008
2464.7	0.0000015
2462.8	0.0000032
2460.8	0.0000092
2458.9	0.0000128
2457.0	0.0000081
2455.1	-0.0000031
2453.1	-0.0000121
2451.2	-0.0000106
2449.3	-0.0000008
2447.3	0.0000056
2445.4	0.0000038
2443.5	0.0000026
2441.6	0.0000069
2439.6	0.0000090
2437.7	0.0000068
2435.8	0.0000035
2433.8	-0.0000004
2431.9	-0.0000030
2430.0	-0.0000029
2428.1	-0.0000028
2426.1	-0.0000027
2424.2	-0.0000006
2422.3	-0.0000018
2420.3	-0.0000047
2418.4	-0.0000025
2416.5	-0.0000016
2414.6	-0.0000050
2412.6	-0.0000072
2410.7	-0.0000098
2408.8	-0.0000111
2406.8	-0.0000072
2404.9	-0.0000040
2403.0	-0.0000044
2401.1	-0.0000051
2399.1	-0.0000054
2397.2	-0.0000066
2395.3	-0.0000088
2393.3	-0.0000092
2391.4	-0.0000057
2389.5	-0.0000029
2387.6	-0.0000036
2385.6	-0.0000025
2383.7	0.0000014
2381.8	-0.0000001
2379.8	-0.0000088
2377.9	-0.0000160
2376.0	-0.0000171
2374.1	-0.0000124
2372.1	-0.0000061
2370.2	-0.0000053
2368.3	-0.0000101
2366.3	-0.0000135
2364.4	-0.0000132
2362.5	-0.0000105
2360.6	-0.0000058
2358.6	-0.0000032
2356.7	-0.0000036
2354.8	-0.0000028
2352.8	-0.0000006
2350.9	0.0000033
2349.0	0.0000135
2347.1	0.0000261
2345.1	0.0000319
2343.2	0.0000312
2341.3	0.0000277
2339.3	0.0000204
2337.4	0.0000110
2335.5	0.0000016
2333.6	-0.0000072
2331.6	-0.0000137
2329.7	-0.0000167
2327.8	-0.0000153
2325.8	-0.0000125
2323.9	-0.0000125
2322.0	-0.0000158
2320.1	-0.0000177
2318.1	-0.0000143
2316.2	-0.0000094
2314.3	-0.0000097
2312.3	-0.0000143
2310.4	-0.0000139
2308.5	-0.0000059
2306.6	0.0000016
2304.6	0.0000006
2302.7	-0.0000103
2300.8	-0.0000203
2298.8	-0.0000183
2296.9	-0.0000103
2295.0	-0.0000091
2293.1	-0.0000129
2291.1	-0.0000124
2289.2	-0.0000109
2287.3	-0.0000143
2285.3	-0.0000190
2283.4	-0.0000191
2281.5	-0.0000160
2279.6	-0.0000161
2277.6	-0.0000187
2275.7	-0.0000216
2273.8	-0.0000248
2271.8	-0.0000235
2269.9	-0.0000180
2268.0	-0.0000162
2266.1	-0.0000198
2264.1	-0.0000242
2262.2	-0.0000270
2260.3	-0.0000279
2258.3	-0.0000261
2256.4	-0.0000221
2254.5	-0.0000190
2252.6	-0.0000176
2250.6	-0.0000165
2248.7	-0.0000164
2246.8	-0.0000180
2244.8	-0.0000172
2242.9	-0.0000134
2241.0	-0.0000104
2239.1	-0.0000084
2237.1	-0.0000072
2235.2	-0.0000114
2233.3	-0.0000228
2231.3	-0.0000316
2229.4	-0.0000311
2227.5	-0.0000271
2225.6	-0.0000255
2223.6	-0.0000228
2221.7	-0.0000182
2219.8	-0.0000174
2217.8	-0.0000203
2215.9	-0.0000190
2214.0	-0.0000134
2212.1	-0.0000106
2210.1	-0.0000096
2208.2	-0.0000065
2206.3	-0.0000004
2204.3	0.0000048
2202.4	0.0000035
2200.5	-0.0000023
2198.6	-0.0000067
2196.6	-0.0000074
2194.7	-0.0000043
2192.8	-0.0000016
2190.8	0.0000007
2188.9	0.0000071
2187.0	0.0000121
2185.1	0.0000120
2183.1	0.0000144
2181.2	0.0000176
2179.3	0.0000156
2177.3	0.0000121
2175.4	0.0000090
2173.5	0.0000060
2171.6	0.0000072
2169.6	0.0000120
2167.7	0.0000181
2165.8	0.0000262
2163.8	0.0000326
2161.9	0.0000345
2160.0	0.0000378
2158.1	0.0000405
2156.1	0.0000359
2154.2	0.0000308
2152.3	0.0000337
2150.3	0.0000449
2148.4	0.0000587
2146.5	0.0000689
2144.6	0.0000800
2142.6	0.0000931
2140.7	0.0001029
2138.8	0.0001103
2136.8	0.0001194
2134.9	0.0001300
2133.0	0.0001400
2131.1	0.0001519
2129.1	0.0001727
2127.2	0.0002028
2125.3	0.0002384
2123.3	0.0002810
2121.4	0.0003367
2119.5	0.0004142
2117.6	0.0005196
2115.6	0.0006568
2113.7	0.0008380
2111.8	0.0010908
2109.8	0.0014777
2107.9	0.0021268
2106.0	0.0032785
2104.1	0.0051482
2102.1	0.0073824
2100.2	0.0088875
2098.3	0.0088733
2096.3	0.0076853
2094.4	0.0060932
2092.5	0.0044075
2090.6	0.0026345
2088.6	0.0010830
2086.7	0.0002844
2084.8	0.0002501
2082.8	0.0004646
2080.9	0.0005761
2079.0	0.0005623
2077.1	0.0004904
2075.1	0.0004096
2073.2	0.0003416
2071.3	0.0002885
2069.3	0.0002515
2067.4	0.0002286
2065.5	0.0002087
2063.6	0.0001878
2061.6	0.0001685
2059.7	0.0001468
2057.8	0.0001249
2055.8	0.0001123
2053.9	0.0001056
2052.0	0.0000987
2050.1	0.0000936
2048.1	0.0000897
2046.2	0.0000842
2044.3	0.0000764
2042.3	0.0000656
2040.4	0.0000501
2038.5	0.0000323
2036.6	0.0000211
2034.6	0.0000196
2032.7	0.0000204
2030.8	0.0000168
2028.8	0.0000093
2026.9	-0.0000006
2025.0	-0.0000086
2023.1	-0.0000079
2021.1	-0.0000033
2019.2	-0.0000006
2017.3	-0.0000002
2015.3	-0.0000027
2013.4	-0.0000048
2011.5	-0.0000045
2009.6	-0.0000052
2007.6	-0.0000075
2005.7	-0.0000102
2003.8	-0.0000136
2001.8	-0.0000155
1999.9	-0.0000146
1998.0	-0.0000129
1996.1	-0.0000113
1994.1	-0.0000084
1992.2	-0.0000045
1990.3	-0.0000024
1988.3	-0.0000033
1986.4	-0.0000040
1984.5	-0.0000013
1982.6	0.0000033
1980.6	0.0000058
1978.7	0.0000065
1976.8	0.0000073
1974.8	0.0000097
1972.9	0.0000151
1971.0	0.0000241
1969.1	0.0000339
1967.1	0.0000373
1965.2	0.0000400
1963.3	0.0000515
1961.4	0.0000677
1959.4	0.0000850
1957.5	0.0001093
1955.6	0.0001523
1953.6	0.0002300
1951.7	0.0003726
1949.8	0.0006295
1947.9	0.0010324
1945.9	0.0015353
1944.0	0.0019842
1942.1	0.0021972
1940.1	0.0021151
1938.2	0.0018360
1936.3	0.0015016
1934.4	0.0012016
1932.4	0.0009608
1930.5	0.0007719
1928.6	0.0006272
1926.6	0.0005228
1924.7	0.0004517
1922.8	0.0004006
1920.9	0.0003611
1918.9	0.0003322
1917.0	0.0003115
1915.1	0.0002980
1913.1	0.0002882
1911.2	0.0002780
1909.3	0.0002701
1907.4	0.0002668
1905.4	0.0002665
1903.5	0.0002663
1901.6	0.0002622
1899.6	0.0002555
1897.7	0.0002527
1895.8	0.0002566
1893.9	0.0002620
1891.9	0.0002683
1890.0	0.0002777
1888.1	0.0002837
1886.1	0.0002787
1884.2	0.0002661
1882.3	0.0002515
1880.4	0.0002342
1878.4	0.0002139
1876.5	0.0001928
1874.6	0.0001758
1872.6	0.0001672
1870.7	0.0001652
1868.8	0.0001608
1866.9	0.0001508
1864.9	0.0001417
1863.0	0.0001379
1861.1	0.0001352
1859.1	0.0001282
1857.2	0.0001202
1855.3	0.0001164
1853.4	0.0001136
1851.4	0.0001089
1849.5	0.0001043
1847.6	0.0001031
1845.6	0.0001062
1843.7	0.0001031
1841.8	0.0000862
1839.9	0.0000657
1837.9	0.0000509
1836.0	0.0000416
1834.1	0.0000378
1832.1	0.0000393
1830.2	0.0000391
1828.3	0.0000307
1826.4	0.0000178
1824.4	0.0000060
1822.5	-0.0000034
1820.6	-0.0000076
1818.6	-0.0000074
1816.7	-0.0000073
1814.8	-0.0000074
1812.9	-0.0000064
1810.9	-0.0000076
1809.0	-0.0000153
1807.1	-0.0000258
1805.1	-0.0000284
1803.2	-0.0000192
1801.3	-0.0000098
1799.4	-0.0000083
1797.4	-0.0000099
1795.5	-0.0000101
1793.6	-0.0000102
1791.6	-0.0000124
1789.7	-0.0000163
1787.8	-0.0000205
1785.9	-0.0000219
1783.9	-0.0000196
1782.0	-0.0000182
1780.1	-0.0000200
1778.1	-0.0000221
1776.2	-0.0000184
1774.3	-0.0000079
1772.4	-0.0000018
1770.4	-0.0000072
1768.5	-0.0000148
1766.6	-0.0000170
1764.6	-0.0000186
1762.7	-0.0000232
1760.8	-0.0000246
1758.9	-0.0000201
1756.9	-0.0000174
1755.0	-0.0000164
1753.1	-0.0000111
1751.1	-0.0000083
1749.2	-0.0000135
1747.3	-0.0000183
1745.4	-0.0000155
1743.4	-0.0000090
1741.5	-0.0000051
1739.6	-0.0000056
1737.6	-0.0000034
1735.7	0.0000044
1733.8	0.0000021
1731.9	-0.0000148
1729.9	-0.0000276
1728.0	-0.0000287
1726.1	-0.0000257
1724.1	-0.0000237
1722.2	-0.0000233
1720.3	-0.0000181
1718.4	-0.0000067
1716.4	-0.0000034
1714.5	-0.0000143
1712.6	-0.0000254
1710.6	-0.0000264
1708.7	-0.0000230
1706.8	-0.0000218
1704.9	-0.0000227
1702.9	-0.0000182
1701.0	-0.0000089
1699.1	-0.0000050
1697.1	-0.0000058
1695.2	-0.0000123
1693.3	-0.0000242
1691.4	-0.0000308
1689.4	-0.0000286
1687.5	-0.0000138
1685.6	0.0000060
1683.6	0.0000004
1681.7	-0.0000305
1679.8	-0.0000535
1677.9	-0.0000555
1675.9	-0.0000492
1674.0	-0.0000453
1672.1	-0.0000390
1670.1	-0.0000299
1668.2	-0.0000275
1666.3	-0.0000326
1664.4	-0.0000350
1662.4	-0.0000303
1660.5	-0.0000245
1658.6	-0.0000203
1656.6	-0.0000063
1654.7	0.0000196
1652.8	0.0000272
1650.9	0.0000099
1648.9	0.0000044
1647.0	0.0000139
1645.1	0.0000118
1643.1	-0.0000028
1641.2	-0.0000135
1639.3	-0.0000103
1637.4	0.0000032
1635.4	0.0000071
1633.5	-0.0000065
1631.6	-0.0000173
1629.6	-0.0000138
1627.7	-0.0000055
1625.8	-0.0000008
1623.9	0.0000035
1621.9	0.0000093
1620.0	0.0000171
1618.1	0.0000262
1616.1	0.0000248
1614.2	0.0000138
1612.3	0.0000082
1610.4	0.0000046
1608.4	-0.0000046
1606.5	-0.0000123
1604.6	-0.0000114
1602.6	-0.0000060
1600.7	-0.0000027
1598.8	-0.0000009
1596.9	0.0000010
1594.9	0.0000004
1593.0	-0.0000025
1591.1	-0.0000028
1589.1	-0.0000007
1587.2	-0.0000012
1585.3	-0.0000044
1583.4	-0.0000047
1581.4	-0.0000001
1579.5	0.0000074
1577.6	0.0000181
1575.6	0.0000225
1573.7	0.0000151
1571.8	0.0000104
1569.9	0.0000101
1567.9	0.0000054
1566.0	-0.0000008
1564.1	0.0000002
1562.1	0.0000156
1560.2	0.0000412
1558.3	0.0000538
1556.4	0.0000437
1554.4	0.0000283
1552.5	0.0000186
1550.6	0.0000144
1548.6	0.0000156
1546.7	0.0000238
1544.8	0.0000376
1542.9	0.0000536
1540.9	0.0000626
1539.0	0.0000517
1537.1	0.0000331
1535.1	0.0000323
1533.2	0.0000396
1531.3	0.0000338
1529.4	0.0000228
1527.4	0.0000191
1525.5	0.0000229
1523.6	0.0000320
1521.6	0.0000377
1519.7	0.0000352
1517.8	0.0000313
1515.9	0.0000275
1513.9	0.0000244
1512.0	0.0000272
1510.1	0.0000412
1508.1	0.0000660
1506.2	0.0000769
1504.3	0.0000562
1502.4	0.0000276
1500.4	0.0000158
1498.5	0.0000181
1496.6	0.0000230
1494.6	0.0000227
1492.7	0.0000180
1490.8	0.0000156
1488.9	0.0000160
1486.9	0.0000145
1485.0	0.0000126
1483.1	0.0000137
1481.1	0.0000139
1479.2	0.0000123
1477.3	0.0000138
1475.4	0.0000216
1473.4	0.0000332
1471.5	0.0000371
1469.6	0.0000300
1467.6	0.0000225
1465.7	0.0000197
1463.8	0.0000173
1461.9	0.0000172
1459.9	0.0000304
1458.0	0.0000486
1456.1	0.0000477
1454.1	0.0000308
1452.2	0.0000192
1450.3	0.0000146
1448.4	0.0000101
1446.4	0.0000036
1444.5	-0.0000026
1442.6	-0.0000012
1440.6	0.0000138
1438.7	0.0000359
1436.8	0.0000450
1434.9	0.0000340
1432.9	0.0000210
1431.0	0.0000197
1429.1	0.0000269
1427.1	0.0000331
1425.2	0.0000312
1423.3	0.0000288
1421.4	0.0000358
1419.4	0.0000406
1417.5	0.0000302
1415.6	0.0000170
1413.6	0.0000134
1411.7	0.0000144
1409.8	0.0000160
1407.9	0.0000206
1405.9	0.0000267
1404.0	0.0000287
1402.1	0.0000308
1400.1	0.0000390
1398.2	0.0000444
1396.3	0.0000412
1394.4	0.0000357
1392.4	0.0000284
1390.5	0.0000224
1388.6	0.0000236
1386.6	0.0000273
1384.7	0.0000263
1382.8	0.0000231
1380.9	0.0000223
1378.9	0.0000243
1377.0	0.0000259
1375.1	0.0000269
1373.1	0.0000292
1371.2	0.0000295
1369.3	0.0000251
1367.4	0.0000174
1365.4	0.0000118
1363.5	0.0000151
1361.6	0.0000242
1359.6	0.0000287
1357.7	0.0000269
1355.8	0.0000228
1353.9	0.0000192
1351.9	0.0000208
1350.0	0.0000270
1348.1	0.0000251
1346.1	0.0000143
1344.2	0.0000140
1342.3	0.0000294
1340.4	0.0000403
1338.4	0.0000371
1336.5	0.0000307
1334.6	0.0000286
1332.6	0.0000269
1330.7	0.0000234
1328.8	0.0000208
1326.9	0.0000208
1324.9	0.0000232
1323.0	0.0000256
1321.1	0.0000238
1319.1	0.0000181
1317.2	0.0000144
1315.3	0.0000148
1313.4	0.0000164
1311.4	0.0000198
1309.5	0.0000204
1307.6	0.0000112
1305.6	0.0000016
1303.7	0.0000024
1301.8	0.0000105
1299.9	0.0000203
1297.9	0.0000296
1296.0	0.0000350
1294.1	0.0000359
1292.1	0.0000351
1290.2	0.0000314
1288.3	0.0000276
1286.4	0.0000295
1284.4	0.0000337
1282.5	0.0000346
1280.6	0.0000332
1278.6	0.0000341
1276.7	0.0000351
1274.8	0.0000317
1272.9	0.0000282
1270.9	0.0000301
1269.0	0.0000340
1267.1	0.0000390
1265.1	0.0000461
1263.2	0.0000496
1261.3	0.0000483
1259.4	0.0000446
1257.4	0.0000385
1255.5	0.0000361
1253.6	0.0000401
1251.6	0.0000429
1249.7	0.0000404
1247.8	0.0000345
1245.9	0.0000310
1243.9	0.0000342
1242.0	0.0000380
1240.1	0.0000358
1238.1	0.0000322
1236.2	0.0000336
1234.3	0.0000359
1232.4	0.0000341
1230.4	0.0000322
1228.5	0.0000362
1226.6	0.0000471
1224.6	0.0000573
1222.7	0.0000580
1220.8	0.0000518
1218.9	0.0000437
1216.9	0.0000352
1215.0	0.0000314
1213.1	0.0000357
1211.1	0.0000450
1209.2	0.0000488
1207.3	0.0000460
1205.4	0.0000435
1203.4	0.0000396
1201.5	0.0000353
1199.6	0.0000364
1197.6	0.0000417
1195.7	0.0000452
1193.8	0.0000426
1191.9	0.0000385
1189.9	0.0000369
1188.0	0.0000361
1186.1	0.0000366
1184.1	0.0000378
1182.2	0.0000387
1180.3	0.0000425
1178.4	0.0000444
1176.4	0.0000368
1174.5	0.0000298
1172.6	0.0000345
1170.6	0.0000432
1168.7	0.0000416
1166.8	0.0000289
1164.9	0.0000176
1162.9	0.0000168
1161.0	0.0000223
1159.1	0.0000312
1157.1	0.0000454
1155.2	0.0000595
1153.3	0.0000658
1151.4	0.0000639
1149.4	0.0000557
1147.5	0.0000474
1145.6	0.0000453
1143.6	0.0000480
1141.7	0.0000523
1139.8	0.0000532
1137.9	0.0000503
1135.9	0.0000505
1134.0	0.0000504
1132.1	0.0000435
1130.1	0.0000371
1128.2	0.0000376
1126.3	0.0000421
1124.4	0.0000429
1122.4	0.0000354
1120.5	0.0000289
1118.6	0.0000364
1116.6	0.0000492
1114.7	0.0000557
1112.8	0.0000581
1110.9	0.0000556
1108.9	0.0000468
1107.0	0.0000433
1105.1	0.0000475
1103.1	0.0000488
1101.2	0.0000460
1099.3	0.0000453
1097.4	0.0000471
1095.4	0.0000499
1093.5	0.0000521
1091.6	0.0000524
1089.6	0.0000524
1087.7	0.0000526
1085.8	0.0000513
1083.9	0.0000482
1081.9	0.0000452
1080.0	0.0000422
1078.1	0.0000352
1076.1	0.0000320
1074.2	0.0000424
1072.3	0.0000560
1070.4	0.0000623
1068.4	0.0000600
1066.5	0.0000509
1064.6	0.0000448
1062.6	0.0000455
1060.7	0.0000437
1058.8	0.0000384
1056.9	0.0000356
1054.9	0.0000407
1053.0	0.0000505
1051.1	0.0000484
1049.1	0.0000364
1047.2	0.0000337
1045.3	0.0000428
1043.4	0.0000520
1041.4	0.0000522
1039.5	0.0000454
1037.6	0.0000384
1035.6	0.0000323
1033.7	0.0000280
1031.8	0.0000298
1029.9	0.0000373
1027.9	0.0000478
1026.0	0.0000575
1024.1	0.0000590
1022.1	0.0000516
1020.2	0.0000468
1018.3	0.0000507
1016.4	0.0000544
1014.4	0.0000549
1012.5	0.0000571
1010.6	0.0000549
1008.6	0.0000464
1006.7	0.0000459
1004.8	0.0000542
1002.9	0.0000555
1000.9	0.0000487
999.0	0.0000474
997.1	0.0000527
995.1	0.0000545
993.2	0.0000489
991.3	0.0000403
989.4	0.0000371
987.4	0.0000405
985.5	0.0000388
983.6	0.0000322
981.6	0.0000359
979.7	0.0000479
977.8	0.0000543
975.9	0.0000513
973.9	0.0000391
972.0	0.0000236
970.1	0.0000149
968.1	0.0000156
966.2	0.0000218
964.3	0.0000276
962.4	0.0000296
960.4	0.0000247
958.5	0.0000146
956.6	0.0000141
954.6	0.0000257
952.7	0.0000333
950.8	0.0000335
948.9	0.0000295
946.9	0.0000226
945.0	0.0000197
943.1	0.0000235
941.1	0.0000338
939.2	0.0000501
937.3	0.0000576
935.4	0.0000413
933.4	0.0000201
931.5	0.0000172
929.6	0.0000218
927.6	0.0000206
925.7	0.0000159
923.8	0.0000129
921.9	0.0000176
919.9	0.0000242
918.0	0.0000208
916.1	0.0000088
914.1	-0.0000026
912.2	0.0000008
910.3	0.0000171
908.4	0.0000229
906.4	0.0000186
904.5	0.0000199
902.6	0.0000227
900.6	0.0000270
898.7	0.0000349
896.8	0.0000305
894.9	0.0000105
892.9	-0.0000033
891.0	0.0000031
889.1	0.0000186
887.1	0.0000286
885.2	0.0000318
883.3	0.0000390
881.4	0.0000473
879.4	0.0000458
877.5	0.0000437
875.6	0.0000472
873.6	0.0000524
871.7	0.0000559
869.8	0.0000514
867.9	0.0000433
865.9	0.0000396
864.0	0.0000406
862.1	0.0000399
860.1	0.0000342
858.2	0.0000179
856.3	-0.0000088
854.4	-0.0000082
852.4	0.0000375
850.5	0.0000761
848.6	0.0000695
846.6	0.0000566
844.7	0.0000696
842.8	0.0000801
840.9	0.0000634
838.9	0.0000339
837.0	0.0000285
835.1	0.0000544
833.1	0.0000664
831.2	0.0000427
829.3	0.0000173
827.4	0.0000031
825.4	-0.0000125
823.5	-0.0000106
821.6	0.0000210
819.6	0.0000490
817.7	0.0000453
815.8	0.0000085
813.9	-0.0000252
811.9	-0.0000163
810.0	0.0000247
808.1	0.0000723
806.1	0.0000881
804.2	0.0000471
802.3	-0.0000077
800.4	-0.0000301
798.4	-0.0000212
796.5	-0.0000169
794.6	-0.0000174
792.6	0.0000147
790.7	0.0000376
788.8	0.0000047
786.9	-0.0000329
784.9	-0.0000356
783.0	-0.0000246
781.1	-0.0000325
779.1	-0.0000627
777.2	-0.0000758
775.3	-0.0000650
773.4	-0.0000688
771.4	-0.0000759
769.5	-0.0000556
767.6	-0.0000377
765.6	-0.0000497
763.7	-0.0000677
761.8	-0.0000774
759.9	-0.0000874
757.9	-0.0000990
756.0	-0.0001194
754.1	-0.0001474
752.1	-0.0001639
750.2	-0.0001901
748.3	-0.0002622
746.4	-0.0003382
744.4	-0.0003646
742.5	-0.0003823
740.6	-0.0004538
738.6	-0.0005707
736.7	-0.0006603
734.8	-0.0007020
732.9	-0.0007492
730.9	-0.0007588
729.0	-0.0006829
727.1	-0.0006765
725.1	-0.0008355
723.2	-0.0010091
721.3	-0.0010622
719.4	-0.0010599
717.4	-0.0011694
715.5	-0.0013469
713.6	-0.0014228
711.6	-0.0014449
709.7	-0.0014760
707.8	-0.0015188
705.9	-0.0016195
703.9	-0.0017156
702.0	-0.0017307
700.1	-0.0017194
698.1	-0.0017445
696.2	-0.0018291
694.3	-0.0018842
692.4	-0.0017936
690.4	-0.0016465
688.5	-0.0016135
686.6	-0.0017460
684.6	-0.0018755
682.7	-0.0018069
680.8	-0.0017014
678.9	-0.0017636
676.9	-0.0018533
675.0	-0.0018036
673.1	-0.0017129
671.1	-0.0016738
669.2	-0.0016143
667.3	-0.0014982
665.4	-0.0013702
663.4	-0.0012842
661.5	-0.0013538
659.6	-0.0017009
657.6	-0.0020848
655.7	-0.0020383
653.8	-0.0016360
651.9	-0.0013877
649.9	-0.0014355
648.0	-0.0015422
646.1	-0.0015672
644.1	-0.0015521
642.2	-0.0016003
640.3	-0.0017057
638.4	-0.0017443
636.4	-0.0017080
634.5	-0.0016777
632.6	-0.0017012
630.6	-0.0017596
628.7	-0.0017909
626.8	-0.0017913
624.9	-0.0017433
622.9	-0.0016504
621.0	-0.0016488
619.1	-0.0017696
617.1	-0.0018665
615.2	-0.0018662
613.3	-0.0018245
611.4	-0.0018176
609.4	-0.0018171
607.5	-0.0017384
605.6	-0.0016937
603.6	-0.0017759
601.7	-0.0018070
599.8	-0.0017588
