3997.9	0.0000079
3996.0	0.0000202
3994.1	0.0000268
3992.1	0.0000290
3990.2	0.0000398
3988.3	0.0000463
3986.3	0.0000387
3984.4	0.0000317
3982.5	0.0000311
3980.6	0.0000309
3978.6	0.0000323
3976.7	0.0000399
3974.8	0.0000414
3972.8	0.0000325
3970.9	0.0000267
3969.0	0.0000299
3967.1	0.0000315
3965.1	0.0000255
3963.2	0.0000184
3961.3	0.0000177
3959.3	0.0000225
3957.4	0.0000251
3955.5	0.0000212
3953.6	0.0000200
3951.6	0.0000288
3949.7	0.0000393
3947.8	0.0000430
3945.8	0.0000414
3943.9	0.0000360
3942.0	0.0000290
3940.1	0.0000219
3938.1	0.0000190
3936.2	0.0000280
3934.3	0.0000440
3932.3	0.0000505
3930.4	0.0000434
3928.5	0.0000313
3926.6	0.0000240
3924.6	0.0000284
3922.7	0.0000385
3920.8	0.0000455
3918.8	0.0000472
3916.9	0.0000440
3915.0	0.0000411
3913.1	0.0000413
3911.1	0.0000388
3909.2	0.0000339
3907.3	0.0000416
3905.3	0.0000652
3903.4	0.0000832
3901.5	0.0000825
3899.6	0.0000683
3897.6	0.0000478
3895.7	0.0000376
3893.8	0.0000472
3891.8	0.0000568
3889.9	0.0000577
3888.0	0.0000666
3886.1	0.0000809
3884.1	0.0000803
3882.2	0.0000683
3880.3	0.0000550
3878.3	0.0000409
3876.4	0.0000322
3874.5	0.0000361
3872.6	0.0000611
3870.6	0.0000946
3868.7	0.0001013
3866.8	0.0000843
3864.8	0.0000671
3862.9	0.0000477
3861.0	0.0000254
3859.1	0.0000259
3857.1	0.0000886
3855.2	0.0001903
3853.3	0.0002259
3851.3	0.0001581
3849.4	0.0000767
3847.5	0.0000465
3845.6	0.0000429
3843.6	0.0000415
3841.7	0.0000599
3839.8	0.0001005
3837.8	0.0001254
3835.9	0.0001162
3834.0	0.0000962
3832.1	0.0000776
3830.1	0.0000578
3828.2	0.0000454
3826.3	0.0000436
3824.3	0.0000480
3822.4	0.0000559
3820.5	0.0000627
3818.6	0.0000746
3816.6	0.0000868
3814.7	0.0000736
3812.8	0.0000513
3810.8	0.0000588
3808.9	0.0000912
3807.0	0.0001066
3805.1	0.0000982
3803.1	0.0001001
3801.2	0.0001026
3799.3	0.0000835
3797.3	0.0000646
3795.4	0.0000501
3793.5	0.0000322
3791.6	0.0000241
3789.6	0.0000267
3787.7	0.0000280
3785.8	0.0000277
3783.8	0.0000325
3781.9	0.0000402
3780.0	0.0000393
3778.1	0.0000300
3776.1	0.0000278
3774.2	0.0000332
3772.3	0.0000351
3770.3	0.0000365
3768.4	0.0000462
3766.5	0.0000598
3764.6	0.0000620
3762.6	0.0000585
3760.7	0.0000661
3758.8	0.0000680
3756.8	0.0000580
3754.9	0.0000652
3753.0	0.0000995
3751.1	0.0001355
3749.1	0.0001473
3747.2	0.0001625
3745.3	0.0001871
3743.3	0.0001546
3741.4	0.0000863
3739.5	0.0000652
3737.6	0.0000876
3735.6	0.0001127
3733.7	0.0001156
3731.8	0.0000943
3729.8	0.0000721
3727.9	0.0000652
3726.0	0.0000639
3724.1	0.0000622
3722.1	0.0000699
3720.2	0.0000792
3718.3	0.0000738
3716.3	0.0000667
3714.4	0.0000832
3712.5	0.0000990
3710.6	0.0000742
3708.6	0.0000371
3706.7	0.0000258
3704.8	0.0000361
3702.8	0.0000490
3700.9	0.0000507
3699.0	0.0000447
3697.1	0.0000394
3695.1	0.0000430
3693.2	0.0000634
3691.3	0.0000924
3689.3	0.0001026
3687.4	0.0000772
3685.5	0.0000429
3683.6	0.0000262
3681.6	0.0000233
3679.7	0.0000409
3677.8	0.0000876
3675.8	0.0001210
3673.9	0.0001154
3672.0	0.0001065
3670.1	0.0000939
3668.1	0.0000607
3666.2	0.0000363
3664.3	0.0000321
3662.3	0.0000290
3660.4	0.0000292
3658.5	0.0000491
3656.6	0.0000683
3654.6	0.0000656
3652.7	0.0000756
3650.8	0.0001105
3648.8	0.0001247
3646.9	0.0000973
3645.0	0.0000602
3643.1	0.0000391
3641.1	0.0000278
3639.2	0.0000205
3637.3	0.0000225
3635.3	0.0000335
3633.4	0.0000504
3631.5	0.0000780
3629.6	0.0000976
3627.6	0.0000778
3625.7	0.0000401
3623.8	0.0000242
3621.8	0.0000316
3619.9	0.0000411
3618.0	0.0000383
3616.1	0.0000361
3614.1	0.0000458
3612.2	0.0000553
3610.3	0.0000572
3608.3	0.0000485
3606.4	0.0000294
3604.5	0.0000144
3602.6	0.0000157
3600.6	0.0000266
3598.7	0.0000320
3596.8	0.0000282
3594.8	0.0000232
3592.9	0.0000171
3591.0	0.0000069
3589.1	0.0000036
3587.1	0.0000089
3585.2	0.0000138
3583.3	0.0000168
3581.3	0.0000140
3579.4	0.0000090
3577.5	0.0000123
3575.6	0.0000171
3573.6	0.0000137
3571.7	0.0000062
3569.8	0.0000074
3567.8	0.0000199
3565.9	0.0000278
3564.0	0.0000209
3562.1	0.0000076
3560.1	0.0000045
3558.2	0.0000129
3556.3	0.0000142
3554.3	0.0000056
3552.4	0.0000017
3550.5	0.0000030
3548.6	0.0000056
3546.6	0.0000077
3544.7	0.0000054
3542.8	0.0000041
3540.8	0.0000073
3538.9	0.0000107
3537.0	0.0000127
3535.1	0.0000108
3533.1	0.0000036
3531.2	-0.0000024
3529.3	-0.0000005
3527.3	0.0000053
3525.4	0.0000053
3523.5	-0.0000015
3521.6	-0.0000019
3519.6	0.0000076
3517.7	0.0000099
3515.8	0.0000007
3513.8	-0.0000069
3511.9	-0.0000054
3510.0	0.0000045
3508.1	0.0000117
3506.1	0.0000060
3504.2	-0.0000006
3502.3	0.0000043
3500.3	0.0000090
3498.4	0.0000081
3496.5	0.0000087
3494.6	0.0000093
3492.6	0.0000087
3490.7	0.0000096
3488.8	0.0000072
3486.8	-0.0000011
3484.9	-0.0000096
3483.0	-0.0000121
3481.1	-0.0000085
3479.1	-0.0000023
3477.2	0.0000012
3475.3	0.0000007
3473.3	0.0000068
3471.4	0.0000198
3469.5	0.0000243
3467.6	0.0000198
3465.6	0.0000164
3463.7	0.0000152
3461.8	0.0000158
3459.8	0.0000201
3457.9	0.0000241
3456.0	0.0000179
3454.1	0.0000012
3452.1	-0.0000115
3450.2	-0.0000108
3448.3	-0.0000010
3446.3	0.0000069
3444.4	0.0000070
3442.5	0.0000092
3440.6	0.0000176
3438.6	0.0000206
3436.7	0.0000180
3434.8	0.0000178
3432.8	0.0000156
3430.9	0.0000055
3429.0	-0.0000067
3427.1	-0.0000104
3425.1	-0.0000038
3423.2	0.0000087
3421.3	0.0000213
3419.3	0.0000257
3417.4	0.0000175
3415.5	0.0000061
3413.6	0.0000007
3411.6	0.0000000
3409.7	0.0000011
3407.8	0.0000035
3405.8	0.0000117
3403.9	0.0000242
3402.0	0.0000300
3400.1	0.0000229
3398.1	0.0000062
3396.2	-0.0000118
3394.3	-0.0000145
3392.3	0.0000033
3390.4	0.0000187
3388.5	0.0000137
3386.6	-0.0000001
3384.6	-0.0000027
3382.7	0.0000049
3380.8	0.0000076
3378.8	-0.0000004
3376.9	-0.0000105
3375.0	-0.0000088
3373.1	0.0000059
3371.1	0.0000163
3369.2	0.0000089
3367.3	-0.0000072
3365.3	-0.0000160
3363.4	-0.0000143
3361.5	-0.0000040
3359.6	0.0000120
3357.6	0.0000229
3355.7	0.0000237
3353.8	0.0000187
3351.8	0.0000092
3349.9	0.0000000
3348.0	-0.0000008
3346.1	0.0000023
3344.1	0.0000038
3342.2	0.0000073
3340.3	0.0000104
3338.3	0.0000085
3336.4	0.0000062
3334.5	0.0000077
3332.6	0.0000099
3330.6	0.0000125
3328.7	0.0000207
3326.8	0.0000294
3324.8	0.0000254
3322.9	0.0000115
3321.0	0.0000019
3319.1	0.0000052
3317.1	0.0000180
3315.2	0.0000271
3313.3	0.0000250
3311.3	0.0000151
3309.4	0.0000077
3307.5	0.0000120
3305.6	0.0000209
3303.6	0.0000220
3301.7	0.0000196
3299.8	0.0000152
3297.8	-0.0000016
3295.9	-0.0000266
3294.0	-0.0000315
3292.1	-0.0000071
3290.1	0.0000141
3288.2	0.0000157
3286.3	0.0000148
3284.3	0.0000147
3282.4	0.0000095
3280.5	0.0000040
3278.6	0.0000056
3276.6	0.0000164
3274.7	0.0000334
3272.8	0.0000437
3270.8	0.0000382
3268.9	0.0000281
3267.0	0.0000300
3265.1	0.0000425
3263.1	0.0000490
3261.2	0.0000423
3259.3	0.0000375
3257.3	0.0000421
3255.4	0.0000450
3253.5	0.0000416
3251.6	0.0000351
3249.6	0.0000311
3247.7	0.0000340
3245.8	0.0000384
3243.8	0.0000365
3241.9	0.0000326
3240.0	0.0000347
3238.1	0.0000396
3236.1	0.0000429
3234.2	0.0000443
3232.3	0.0000412
3230.3	0.0000337
3228.4	0.0000223
3226.5	0.0000110
3224.6	0.0000121
3222.6	0.0000219
3220.7	0.0000242
3218.8	0.0000222
3216.8	0.0000251
3214.9	0.0000243
3213.0	0.0000179
3211.1	0.0000181
3209.1	0.0000234
3207.2	0.0000245
3205.3	0.0000255
3203.3	0.0000294
3201.4	0.0000257
3199.5	0.0000124
3197.6	0.0000067
3195.6	0.0000131
3193.7	0.0000143
3191.8	0.0000089
3189.8	0.0000071
3187.9	0.0000072
3186.0	0.0000038
3184.1	0.0000002
3182.1	0.0000054
3180.2	0.0000156
3178.3	0.0000170
3176.3	0.0000105
3174.4	0.0000060
3172.5	0.0000068
3170.6	0.0000090
3168.6	0.0000062
3166.7	0.0000027
3164.8	0.0000018
3162.8	-0.0000025
3160.9	-0.0000046
3159.0	0.0000035
3157.1	0.0000139
3155.1	0.0000159
3153.2	0.0000109
3151.3	0.0000071
3149.3	0.0000057
3147.4	0.0000056
3145.5	0.0000104
3143.6	0.0000152
3141.6	0.0000148
3139.7	0.0000136
3137.8	0.0000100
3135.8	0.0000028
3133.9	-0.0000025
3132.0	-0.0000084
3130.1	-0.0000155
3128.1	-0.0000181
3126.2	-0.0000181
3124.3	-0.0000170
3122.3	-0.0000117
3120.4	-0.0000035
3118.5	0.0000008
3116.6	0.0000000
3114.6	-0.0000004
3112.7	0.0000006
3110.8	-0.0000022
3108.8	-0.0000075
3106.9	-0.0000115
3105.0	-0.0000134
3103.1	-0.0000142
3101.1	-0.0000159
3099.2	-0.0000199
3097.3	-0.0000252
3095.3	-0.0000305
3093.4	-0.0000339
3091.5	-0.0000341
3089.6	-0.0000320
3087.6	-0.0000332
3085.7	-0.0000378
3083.8	-0.0000385
3081.8	-0.0000343
3079.9	-0.0000307
3078.0	-0.0000322
3076.1	-0.0000345
3074.1	-0.0000330
3072.2	-0.0000324
3070.3	-0.0000341
3068.3	-0.0000376
3066.4	-0.0000390
3064.5	-0.0000318
3062.6	-0.0000228
3060.6	-0.0000234
3058.7	-0.0000308
3056.8	-0.0000330
3054.8	-0.0000271
3052.9	-0.0000196
3051.0	-0.0000147
3049.1	-0.0000154
3047.1	-0.0000206
3045.2	-0.0000266
3043.3	-0.0000335
3041.3	-0.0000401
3039.4	-0.0000392
3037.5	-0.0000320
3035.6	-0.0000297
3033.6	-0.0000315
3031.7	-0.0000301
3029.8	-0.0000293
3027.8	-0.0000340
3025.9	-0.0000389
3024.0	-0.0000377
3022.1	-0.0000346
3020.1	-0.0000376
3018.2	-0.0000445
3016.3	-0.0000484
3014.3	-0.0000455
3012.4	-0.0000360
3010.5	-0.0000254
3008.6	-0.0000217
3006.6	-0.0000243
3004.7	-0.0000249
3002.8	-0.0000244
3000.8	-0.0000299
2998.9	-0.0000379
2997.0	-0.0000405
2995.1	-0.0000376
2993.1	-0.0000330
2991.2	-0.0000319
2989.3	-0.0000346
2987.3	-0.0000378
2985.4	-0.0000424
2983.5	-0.0000455
2981.6	-0.0000413
2979.6	-0.0000343
2977.7	-0.0000323
2975.8	-0.0000318
2973.8	-0.0000278
2971.9	-0.0000234
2970.0	-0.0000234
2968.1	-0.0000280
2966.1	-0.0000322
2964.2	-0.0000311
2962.3	-0.0000288
2960.3	-0.0000298
2958.4	-0.0000316
2956.5	-0.0000317
2954.6	-0.0000306
2952.6	-0.0000286
2950.7	-0.0000287
2948.8	-0.0000329
2946.8	-0.0000366
2944.9	-0.0000326
2943.0	-0.0000257
2941.1	-0.0000286
2939.1	-0.0000387
2937.2	-0.0000449
2935.3	-0.0000449
2933.3	-0.0000418
2931.4	-0.0000383
2929.5	-0.0000335
2927.6	-0.0000261
2925.6	-0.0000204
2923.7	-0.0000214
2921.8	-0.0000224
2919.8	-0.0000194
2917.9	-0.0000185
2916.0	-0.0000246
2914.1	-0.0000340
2912.1	-0.0000386
2910.2	-0.0000393
2908.3	-0.0000401
2906.3	-0.0000414
2904.4	-0.0000416
2902.5	-0.0000366
2900.6	-0.0000315
2898.6	-0.0000366
2896.7	-0.0000458
2894.8	-0.0000469
2892.8	-0.0000438
2890.9	-0.0000447
2889.0	-0.0000455
2887.1	-0.0000437
2885.1	-0.0000412
2883.2	-0.0000372
2881.3	-0.0000363
2879.3	-0.0000409
2877.4	-0.0000390
2875.5	-0.0000279
2873.6	-0.0000223
2871.6	-0.0000239
2869.7	-0.0000242
2867.8	-0.0000266
2865.8	-0.0000338
2863.9	-0.0000399
2862.0	-0.0000408
2860.1	-0.0000379
2858.1	-0.0000371
2856.2	-0.0000400
2854.3	-0.0000352
2852.3	-0.0000213
2850.4	-0.0000153
2848.5	-0.0000192
2846.6	-0.0000217
2844.6	-0.0000257
2842.7	-0.0000334
2840.8	-0.0000379
2838.8	-0.0000369
2836.9	-0.0000352
2835.0	-0.0000382
2833.1	-0.0000427
2831.1	-0.0000430
2829.2	-0.0000403
2827.3	-0.0000375
2825.3	-0.0000366
2823.4	-0.0000381
2821.5	-0.0000372
2819.6	-0.0000302
2817.6	-0.0000239
2815.7	-0.0000231
2813.8	-0.0000269
2811.8	-0.0000354
2809.9	-0.0000433
2808.0	-0.0000455
2806.1	-0.0000459
2804.1	-0.0000485
2802.2	-0.0000483
2800.3	-0.0000423
2798.3	-0.0000402
2796.4	-0.0000454
2794.5	-0.0000471
2792.6	-0.0000422
2790.6	-0.0000379
2788.7	-0.0000392
2786.8	-0.0000438
2784.8	-0.0000450
2782.9	-0.0000378
2781.0	-0.0000268
2779.1	-0.0000243
2777.1	-0.0000311
2775.2	-0.0000347
2773.3	-0.0000314
2771.3	-0.0000304
2769.4	-0.0000323
2767.5	-0.0000314
2765.6	-0.0000286
2763.6	-0.0000266
2761.7	-0.0000290
2759.8	-0.0000342
2757.8	-0.0000352
2755.9	-0.0000341
2754.0	-0.0000329
2752.1	-0.0000272
2750.1	-0.0000208
2748.2	-0.0000203
2746.3	-0.0000233
2744.3	-0.0000285
2742.4	-0.0000347
2740.5	-0.0000394
2738.6	-0.0000433
2736.6	-0.0000434
2734.7	-0.0000364
2732.8	-0.0000313
2730.8	-0.0000328
2728.9	-0.0000329
2727.0	-0.0000306
2725.1	-0.0000331
2723.1	-0.0000401
2721.2	-0.0000460
2719.3	-0.0000440
2717.3	-0.0000366
2715.4	-0.0000347
2713.5	-0.0000371
2711.6	-0.0000344
2709.6	-0.0000283
2707.7	-0.0000280
2705.8	-0.0000341
2703.8	-0.0000383
2701.9	-0.0000382
2700.0	-0.0000379
2698.1	-0.0000367
2696.1	-0.0000390
2694.2	-0.0000477
2692.3	-0.0000482
2690.3	-0.0000361
2688.4	-0.0000287
2686.5	-0.0000312
2684.6	-0.0000318
2682.6	-0.0000257
2680.7	-0.0000208
2678.8	-0.0000218
2676.8	-0.0000261
2674.9	-0.0000298
2673.0	-0.0000304
2671.1	-0.0000267
2669.1	-0.0000189
2667.2	-0.0000127
2665.3	-0.0000115
2663.3	-0.0000105
2661.4	-0.0000114
2659.5	-0.0000170
2657.6	-0.0000223
2655.6	-0.0000231
2653.7	-0.0000175
2651.8	-0.0000086
2649.8	-0.0000053
2647.9	-0.0000084
2646.0	-0.0000094
2644.1	-0.0000062
2642.1	-0.0000046
2640.2	-0.0000064
2638.3	-0.0000086
2636.3	-0.0000087
2634.4	-0.0000076
2632.5	-0.0000104
2630.6	-0.0000194
2628.6	-0.0000250
2626.7	-0.0000200
2624.8	-0.0000110
2622.8	-0.0000038
2620.9	0.0000001
2619.0	0.0000004
2617.1	-0.0000022
2615.1	-0.0000030
2613.2	-0.0000013
2611.3	-0.0000030
2609.3	-0.0000042
2607.4	-0.0000020
2605.5	-0.0000031
2603.6	-0.0000069
2601.6	-0.0000088
2599.7	-0.0000104
2597.8	-0.0000096
2595.8	-0.0000005
2593.9	0.0000072
2592.0	0.0000050
2590.1	0.0000031
2588.1	0.0000035
2586.2	0.0000004
2584.3	-0.0000020
2582.3	0.0000001
2580.4	0.0000048
2578.5	0.0000076
2576.6	0.0000033
2574.6	-0.0000027
2572.7	-0.0000002
2570.8	0.0000065
2568.8	0.0000069
2566.9	0.0000033
2565.0	0.0000007
2563.1	0.0000024
2561.1	0.0000116
2559.2	0.0000220
2557.3	0.0000209
2555.3	0.0000089
2553.4	0.0000004
2551.5	0.0000027
2549.6	0.0000089
2547.6	0.0000124
2545.7	0.0000153
2543.8	0.0000194
2541.8	0.0000225
2539.9	0.0000253
2538.0	0.0000267
2536.1	0.0000273
2534.1	0.0000321
2532.2	0.0000376
2530.3	0.0000377
2528.3	0.0000366
2526.4	0.0000368
2524.5	0.0000358
2522.6	0.0000353
2520.6	0.0000352
2518.7	0.0000328
2516.8	0.0000319
2514.8	0.0000339
2512.9	0.0000358
2511.0	0.0000363
2509.1	0.0000357
2507.1	0.0000350
2505.2	0.0000349
2503.3	0.0000354
2501.3	0.0000341
2499.4	0.0000298
2497.5	0.0000282
2495.6	0.0000328
2493.6	0.0000379
2491.7	0.0000372
2489.8	0.0000320
2487.8	0.0000249
2485.9	0.0000187
2484.0	0.0000200
2482.1	0.0000278
2480.1	0.0000324
2478.2	0.0000332
2476.3	0.0000351
2474.3	0.0000321
2472.4	0.0000191
2470.5	0.0000067
2468.6	0.0000060
2466.6	0.0000144
2464.7	0.0000215
2462.8	0.0000241
2460.8	0.0000260
2458.9	0.0000271
2457.0	0.0000260
2455.1	0.0000218
2453.1	0.0000189
2451.2	0.0000249
2449.3	0.0000332
2447.3	0.0000324
2445.4	0.0000288
2443.5	0.0000332
2441.6	0.0000407
2439.6	0.0000409
2437.7	0.0000362
2435.8	0.0000313
2433.8	0.0000256
2431.9	0.0000255
2430.0	0.0000317
2428.1	0.0000334
2426.1	0.0000307
2424.2	0.0000278
2422.3	0.0000226
2420.3	0.0000213
2418.4	0.0000287
2416.5	0.0000328
2414.6	0.0000285
2412.6	0.0000260
2410.7	0.0000282
2408.8	0.0000306
2406.8	0.0000321
2404.9	0.0000305
2403.0	0.0000263
2401.1	0.0000254
2399.1	0.0000283
2397.2	0.0000316
2395.3	0.0000338
2393.3	0.0000313
2391.4	0.0000245
2389.5	0.0000226
2387.6	0.0000288
2385.6	0.0000375
2383.7	0.0000420
2381.8	0.0000372
2379.8	0.0000303
2377.9	0.0000297
2376.0	0.0000324
2374.1	0.0000362
2372.1	0.0000382
2370.2	0.0000322
2368.3	0.0000238
2366.3	0.0000213
2364.4	0.0000215
2362.5	0.0000197
2360.6	0.0000177
2358.6	0.0000158
2356.7	0.0000133
2354.8	0.0000117
2352.8	0.0000128
2350.9	0.0000164
2349.0	0.0000234
2347.1	0.0000332
2345.1	0.0000385
2343.2	0.0000364
2341.3	0.0000340
2339.3	0.0000362
2337.4	0.0000396
2335.5	0.0000417
2333.6	0.0000454
2331.6	0.0000515
2329.7	0.0000557
2327.8	0.0000570
2325.8	0.0000574
2323.9	0.0000576
2322.0	0.0000580
2320.1	0.0000615
2318.1	0.0000653
2316.2	0.0000646
2314.3	0.0000601
2312.3	0.0000554
2310.4	0.0000532
2308.5	0.0000553
2306.6	0.0000588
2304.6	0.0000581
2302.7	0.0000542
2300.8	0.0000528
2298.8	0.0000551
2296.9	0.0000553
2295.0	0.0000536
2293.1	0.0000532
2291.1	0.0000526
2289.2	0.0000539
2287.3	0.0000593
2285.3	0.0000641
2283.4	0.0000652
2281.5	0.0000601
2279.6	0.0000523
2277.6	0.0000484
2275.7	0.0000449
2273.8	0.0000413
2271.8	0.0000454
2269.9	0.0000569
2268.0	0.0000646
2266.1	0.0000612
2264.1	0.0000503
2262.2	0.0000400
2260.3	0.0000380
2258.3	0.0000455
2256.4	0.0000545
2254.5	0.0000580
2252.6	0.0000566
2250.6	0.0000525
2248.7	0.0000469
2246.8	0.0000423
2244.8	0.0000387
2242.9	0.0000356
2241.0	0.0000361
2239.1	0.0000394
2237.1	0.0000382
2235.2	0.0000311
2233.3	0.0000262
2231.3	0.0000245
2229.4	0.0000232
2227.5	0.0000286
2225.6	0.0000418
2223.6	0.0000517
2221.7	0.0000536
2219.8	0.0000497
2217.8	0.0000438
2215.9	0.0000411
2214.0	0.0000427
2212.1	0.0000451
2210.1	0.0000472
2208.2	0.0000508
2206.3	0.0000566
2204.3	0.0000615
2202.4	0.0000635
2200.5	0.0000659
2198.6	0.0000707
2196.6	0.0000730
2194.7	0.0000741
2192.8	0.0000755
2190.8	0.0000748
2188.9	0.0000752
2187.0	0.0000800
2185.1	0.0000873
2183.1	0.0000949
2181.2	0.0000997
2179.3	0.0000995
2177.3	0.0000993
2175.4	0.0001007
2173.5	0.0001001
2171.6	0.0001001
2169.6	0.0001022
2167.7	0.0001055
2165.8	0.0001086
2163.8	0.0001120
2161.9	0.0001188
2160.0	0.0001288
2158.1	0.0001361
2156.1	0.0001362
2154.2	0.0001329
2152.3	0.0001313
2150.3	0.0001354
2148.4	0.0001430
2146.5	0.0001512
2144.6	0.0001674
2142.6	0.0001887
2140.7	0.0002066
2138.8	0.0002224
2136.8	0.0002386
2134.9	0.0002497
2133.0	0.0002526
2131.1	0.0002542
2129.1	0.0002607
2127.2	0.0002727
2125.3	0.0002896
2123.3	0.0003163
2121.4	0.0003518
2119.5	0.0003966
2117.6	0.0004637
2115.6	0.0005656
2113.7	0.0007153
2111.8	0.0009234
2109.8	0.0012084
2107.9	0.0016260
2106.0	0.0023507
2104.1	0.0038680
2102.1	0.0069099
2100.2	0.0111524
2098.3	0.0141177
2096.3	0.0135844
2094.4	0.0104369
2092.5	0.0068869
2090.6	0.0038987
2088.6	0.0016960
2086.7	0.0005578
2084.8	0.0003446
2082.8	0.0004635
2080.9	0.0005224
2079.0	0.0004852
2077.1	0.0004160
2075.1	0.0003564
2073.2	0.0003094
2071.3	0.0002672
2069.3	0.0002336
2067.4	0.0002177
2065.5	0.0002164
2063.6	0.0002179
2061.6	0.0002145
2059.7	0.0002028
2057.8	0.0001873
2055.8	0.0001767
2053.9	0.0001747
2052.0	0.0001775
2050.1	0.0001772
2048.1	0.0001733
2046.2	0.0001702
2044.3	0.0001671
2042.3	0.0001569
2040.4	0.0001370
2038.5	0.0001146
2036.6	0.0000968
2034.6	0.0000850
2032.7	0.0000745
2030.8	0.0000635
2028.8	0.0000513
2026.9	0.0000392
2025.0	0.0000332
2023.1	0.0000322
2021.1	0.0000276
2019.2	0.0000230
2017.3	0.0000248
2015.3	0.0000258
2013.4	0.0000245
2011.5	0.0000253
2009.6	0.0000264
2007.6	0.0000243
2005.7	0.0000204
2003.8	0.0000185
2001.8	0.0000186
1999.9	0.0000178
1998.0	0.0000160
1996.1	0.0000156
1994.1	0.0000184
1992.2	0.0000203
1990.3	0.0000162
1988.3	0.0000082
1986.4	0.0000018
1984.5	-0.0000011
1982.6	0.0000010
1980.6	0.0000080
1978.7	0.0000148
1976.8	0.0000136
1974.8	0.0000064
1972.9	0.0000034
1971.0	0.0000075
1969.1	0.0000144
1967.1	0.0000180
1965.2	0.0000180
1963.3	0.0000189
1961.4	0.0000212
1959.4	0.0000236
1957.5	0.0000287
1955.6	0.0000402
1953.6	0.0000539
1951.7	0.0000719
1949.8	0.0001111
1947.9	0.0001927
1945.9	0.0003379
1944.0	0.0005472
1942.1	0.0007636
1940.1	0.0008932
1938.2	0.0008880
1936.3	0.0007828
1934.4	0.0006437
1932.4	0.0005171
1930.5	0.0004157
1928.6	0.0003375
1926.6	0.0002829
1924.7	0.0002511
1922.8	0.0002306
1920.9	0.0002150
1918.9	0.0002053
1917.0	0.0001957
1915.1	0.0001873
1913.1	0.0001858
1911.2	0.0001855
1909.3	0.0001839
1907.4	0.0001887
1905.4	0.0001987
1903.5	0.0002064
1901.6	0.0002143
1899.6	0.0002286
1897.7	0.0002474
1895.8	0.0002679
1893.9	0.0002931
1891.9	0.0003235
1890.0	0.0003498
1888.1	0.0003590
1886.1	0.0003480
1884.2	0.0003247
1882.3	0.0002963
1880.4	0.0002652
1878.4	0.0002365
1876.5	0.0002125
1874.6	0.0001901
1872.6	0.0001748
1870.7	0.0001742
1868.8	0.0001748
1866.9	0.0001628
1864.9	0.0001478
1863.0	0.0001391
1861.1	0.0001355
1859.1	0.0001337
1857.2	0.0001353
1855.3	0.0001417
1853.4	0.0001446
1851.4	0.0001413
1849.5	0.0001419
1847.6	0.0001574
1845.6	0.0001794
1843.7	0.0001737
1841.8	0.0001327
1839.9	0.0000920
1837.9	0.0000674
1836.0	0.0000521
1834.1	0.0000469
1832.1	0.0000538
1830.2	0.0000606
1828.3	0.0000546
1826.4	0.0000422
1824.4	0.0000284
1822.5	0.0000129
1820.6	0.0000034
1818.6	-0.0000000
1816.7	-0.0000033
1814.8	-0.0000068
1812.9	-0.0000064
1810.9	-0.0000041
1809.0	-0.0000088
1807.1	-0.0000195
1805.1	-0.0000213
1803.2	-0.0000091
1801.3	0.0000009
1799.4	-0.0000001
1797.4	-0.0000029
1795.5	0.0000024
1793.6	0.0000127
1791.6	0.0000121
1789.7	-0.0000015
1787.8	-0.0000078
1785.9	-0.0000010
1783.9	0.0000022
1782.0	-0.0000018
1780.1	-0.0000054
1778.1	-0.0000084
1776.2	0.0000010
1774.3	0.0000325
1772.4	0.0000538
1770.4	0.0000389
1768.5	0.0000126
1766.6	-0.0000030
1764.6	-0.0000047
1762.7	0.0000023
1760.8	0.0000037
1758.9	0.0000027
1756.9	0.0000052
1755.0	0.0000115
1753.1	0.0000284
1751.1	0.0000403
1749.2	0.0000291
1747.3	0.0000120
1745.4	0.0000087
1743.4	0.0000165
1741.5	0.0000260
1739.6	0.0000299
1737.6	0.0000412
1735.7	0.0000731
1733.8	0.0000855
1731.9	0.0000543
1729.9	0.0000201
1728.0	0.0000063
1726.1	0.0000022
1724.1	0.0000027
1722.2	0.0000151
1720.3	0.0000539
1718.4	0.0000994
1716.4	0.0001023
1714.5	0.0000631
1712.6	0.0000266
1710.6	0.0000110
1708.7	0.0000123
1706.8	0.0000243
1704.9	0.0000387
1702.9	0.0000656
1701.0	0.0000995
1699.1	0.0001112
1697.1	0.0001080
1695.2	0.0000878
1693.3	0.0000415
1691.4	0.0000104
1689.4	0.0000202
1687.5	0.0000731
1685.6	0.0001359
1683.6	0.0001280
1681.7	0.0000563
1679.8	0.0000059
1677.9	0.0000051
1675.9	0.0000207
1674.0	0.0000236
1672.1	0.0000296
1670.1	0.0000453
1668.2	0.0000412
1666.3	0.0000242
1664.4	0.0000234
1662.4	0.0000285
1660.5	0.0000232
1658.6	0.0000226
1656.6	0.0000678
1654.7	0.0001639
1652.8	0.0002072
1650.9	0.0001484
1648.9	0.0000994
1647.0	0.0001026
1645.1	0.0000876
1643.1	0.0000466
1641.2	0.0000229
1639.3	0.0000348
1637.4	0.0000743
1635.4	0.0000954
1633.5	0.0000665
1631.6	0.0000291
1629.6	0.0000203
1627.7	0.0000286
1625.8	0.0000388
1623.9	0.0000440
1621.9	0.0000426
1620.0	0.0000577
1618.1	0.0000945
1616.1	0.0000997
1614.2	0.0000617
1612.3	0.0000375
1610.4	0.0000392
1608.4	0.0000372
1606.5	0.0000283
1604.6	0.0000256
1602.6	0.0000296
1600.7	0.0000325
1598.8	0.0000318
1596.9	0.0000297
1594.9	0.0000300
1593.0	0.0000330
1591.1	0.0000364
1589.1	0.0000354
1587.2	0.0000292
1585.3	0.0000237
1583.4	0.0000231
1581.4	0.0000285
1579.5	0.0000566
1577.6	0.0001078
1575.6	0.0001216
1573.7	0.0000833
1571.8	0.0000625
1569.9	0.0000683
1567.9	0.0000598
1566.0	0.0000440
1564.1	0.0000509
1562.1	0.0001055
1560.2	0.0001879
1558.3	0.0002127
1556.4	0.0001629
1554.4	0.0001097
1552.5	0.0000808
1550.6	0.0000626
1548.6	0.0000539
1546.7	0.0000669
1544.8	0.0001047
1542.9	0.0001574
1540.9	0.0001969
1539.0	0.0001760
1537.1	0.0001160
1535.1	0.0000893
1533.2	0.0000868
1531.3	0.0000691
1529.4	0.0000530
1527.4	0.0000544
1525.5	0.0000705
1523.6	0.0001064
1521.6	0.0001360
1519.7	0.0001274
1517.8	0.0001012
1515.9	0.0000804
1513.9	0.0000670
1512.0	0.0000690
1510.1	0.0001044
1508.1	0.0001730
1506.2	0.0002008
1504.3	0.0001405
1502.4	0.0000696
1500.4	0.0000539
1498.5	0.0000710
1496.6	0.0000781
1494.6	0.0000621
1492.7	0.0000504
1490.8	0.0000566
1488.9	0.0000578
1486.9	0.0000460
1485.0	0.0000365
1483.1	0.0000351
1481.1	0.0000358
1479.2	0.0000367
1477.3	0.0000438
1475.4	0.0000620
1473.4	0.0000794
1471.5	0.0000705
1469.6	0.0000459
1467.6	0.0000448
1465.7	0.0000580
1463.8	0.0000534
1461.9	0.0000508
1459.9	0.0000904
1458.0	0.0001422
1456.1	0.0001353
1454.1	0.0000818
1452.2	0.0000462
1450.3	0.0000377
1448.4	0.0000341
1446.4	0.0000243
1444.5	0.0000141
1442.6	0.0000179
1440.6	0.0000398
1438.7	0.0000719
1436.8	0.0000847
1434.9	0.0000600
1432.9	0.0000339
1431.0	0.0000355
1429.1	0.0000444
1427.1	0.0000436
1425.2	0.0000403
1423.3	0.0000462
1421.4	0.0000700
1419.4	0.0000898
1417.5	0.0000753
1415.6	0.0000471
1413.6	0.0000343
1411.7	0.0000340
1409.8	0.0000376
1407.9	0.0000402
1405.9	0.0000418
1404.0	0.0000432
1402.1	0.0000477
1400.1	0.0000563
1398.2	0.0000614
1396.3	0.0000628
1394.4	0.0000599
1392.4	0.0000466
1390.5	0.0000354
1388.6	0.0000356
1386.6	0.0000333
1384.7	0.0000223
1382.8	0.0000162
1380.9	0.0000200
1378.9	0.0000263
1377.0	0.0000300
1375.1	0.0000299
1373.1	0.0000305
1371.2	0.0000364
1369.3	0.0000401
1367.4	0.0000333
1365.4	0.0000243
1363.5	0.0000239
1361.6	0.0000280
1359.6	0.0000278
1357.7	0.0000259
1355.8	0.0000246
1353.9	0.0000185
1351.9	0.0000134
1350.0	0.0000168
1348.1	0.0000207
1346.1	0.0000176
1344.2	0.0000162
1342.3	0.0000258
1340.4	0.0000359
1338.4	0.0000352
1336.5	0.0000296
1334.6	0.0000250
1332.6	0.0000191
1330.7	0.0000130
1328.8	0.0000126
1326.9	0.0000178
1324.9	0.0000223
1323.0	0.0000217
1321.1	0.0000171
1319.1	0.0000142
1317.2	0.0000140
1315.3	0.0000120
1313.4	0.0000066
1311.4	0.0000051
1309.5	0.0000098
1307.6	0.0000135
1305.6	0.0000134
1303.7	0.0000124
1301.8	0.0000121
1299.9	0.0000147
1297.9	0.0000201
1296.0	0.0000235
1294.1	0.0000219
1292.1	0.0000197
1290.2	0.0000225
1288.3	0.0000292
1286.4	0.0000305
1284.4	0.0000232
1282.5	0.0000177
1280.6	0.0000205
1278.6	0.0000257
1276.7	0.0000231
1274.8	0.0000128
1272.9	0.0000082
1270.9	0.0000134
1269.0	0.0000176
1267.1	0.0000207
1265.1	0.0000273
1263.2	0.0000332
1261.3	0.0000391
1259.4	0.0000463
1257.4	0.0000440
1255.5	0.0000312
1253.6	0.0000203
1251.6	0.0000173
1249.7	0.0000223
1247.8	0.0000311
1245.9	0.0000346
1243.9	0.0000306
1242.0	0.0000262
1240.1	0.0000232
1238.1	0.0000191
1236.2	0.0000187
1234.3	0.0000207
1232.4	0.0000195
1230.4	0.0000195
1228.5	0.0000245
1226.6	0.0000306
1224.6	0.0000324
1222.7	0.0000319
1220.8	0.0000319
1218.9	0.0000274
1216.9	0.0000182
1215.0	0.0000141
1213.1	0.0000173
1211.1	0.0000223
1209.2	0.0000224
1207.3	0.0000158
1205.4	0.0000105
1203.4	0.0000106
1201.5	0.0000162
1199.6	0.0000266
1197.6	0.0000309
1195.7	0.0000233
1193.8	0.0000130
1191.9	0.0000089
1189.9	0.0000135
1188.0	0.0000216
1186.1	0.0000234
1184.1	0.0000116
1182.2	-0.0000052
1180.3	-0.0000076
1178.4	0.0000017
1176.4	0.0000061
1174.5	0.0000060
1172.6	0.0000044
1170.6	-0.0000032
1168.7	-0.0000127
1166.8	-0.0000181
1164.9	-0.0000175
1162.9	-0.0000128
1161.0	-0.0000094
1159.1	-0.0000083
1157.1	-0.0000063
1155.2	-0.0000012
1153.3	0.0000029
1151.4	0.0000031
1149.4	0.0000005
1147.5	-0.0000040
1145.6	-0.0000076
1143.6	-0.0000099
1141.7	-0.0000090
1139.8	-0.0000034
1137.9	0.0000031
1135.9	0.0000080
1134.0	0.0000067
1132.1	-0.0000009
1130.1	-0.0000043
1128.2	0.0000003
1126.3	0.0000086
1124.4	0.0000150
1122.4	0.0000126
1120.5	0.0000015
1118.6	-0.0000042
1116.6	0.0000028
1114.7	0.0000126
1112.8	0.0000147
1110.9	0.0000073
1108.9	0.0000004
1107.0	0.0000061
1105.1	0.0000147
1103.1	0.0000142
1101.2	0.0000091
1099.3	0.0000032
1097.4	-0.0000046
1095.4	-0.0000097
1093.5	-0.0000100
1091.6	-0.0000105
1089.6	-0.0000113
1087.7	-0.0000096
1085.8	-0.0000082
1083.9	-0.0000110
1081.9	-0.0000182
1080.0	-0.0000280
1078.1	-0.0000358
1076.1	-0.0000334
1074.2	-0.0000196
1072.3	-0.0000050
1070.4	0.0000045
1068.4	0.0000094
1066.5	0.0000066
1064.6	-0.0000019
1062.6	-0.0000098
1060.7	-0.0000174
1058.8	-0.0000248
1056.9	-0.0000278
1054.9	-0.0000193
1053.0	-0.0000043
1051.1	-0.0000016
1049.1	-0.0000118
1047.2	-0.0000191
1045.3	-0.0000204
1043.4	-0.0000215
1041.4	-0.0000223
1039.5	-0.0000201
1037.6	-0.0000207
1035.6	-0.0000297
1033.7	-0.0000390
1031.8	-0.0000383
1029.9	-0.0000325
1027.9	-0.0000283
1026.0	-0.0000225
1024.1	-0.0000152
1022.1	-0.0000080
1020.2	-0.0000034
1018.3	-0.0000051
1016.4	-0.0000108
1014.4	-0.0000179
1012.5	-0.0000227
1010.6	-0.0000246
1008.6	-0.0000250
1006.7	-0.0000186
1004.8	-0.0000058
1002.9	-0.0000010
1000.9	-0.0000108
999.0	-0.0000221
997.1	-0.0000268
995.1	-0.0000296
993.2	-0.0000315
991.3	-0.0000273
989.4	-0.0000166
987.4	-0.0000093
985.5	-0.0000172
983.6	-0.0000342
981.6	-0.0000422
979.7	-0.0000376
977.8	-0.0000291
975.9	-0.0000254
973.9	-0.0000302
972.0	-0.0000364
970.1	-0.0000358
968.1	-0.0000361
966.2	-0.0000413
964.3	-0.0000440
962.4	-0.0000419
960.4	-0.0000426
958.5	-0.0000495
956.6	-0.0000508
954.6	-0.0000411
952.7	-0.0000348
950.8	-0.0000385
948.9	-0.0000453
946.9	-0.0000517
945.0	-0.0000545
943.1	-0.0000517
941.1	-0.0000489
939.2	-0.0000462
937.3	-0.0000404
935.4	-0.0000404
933.4	-0.0000460
931.5	-0.0000524
929.6	-0.0000617
927.6	-0.0000650
925.7	-0.0000617
923.8	-0.0000579
921.9	-0.0000492
919.9	-0.0000420
918.0	-0.0000478
916.1	-0.0000612
914.1	-0.0000713
912.2	-0.0000684
910.3	-0.0000523
908.4	-0.0000363
906.4	-0.0000307
904.5	-0.0000389
902.6	-0.0000530
900.6	-0.0000531
898.7	-0.0000362
896.8	-0.0000237
894.9	-0.0000309
892.9	-0.0000437
891.0	-0.0000428
889.1	-0.0000295
887.1	-0.0000152
885.2	-0.0000103
883.3	-0.0000102
881.4	-0.0000132
879.4	-0.0000292
877.5	-0.0000455
875.6	-0.0000414
873.6	-0.0000205
871.7	-0.0000028
869.8	0.0000009
867.9	-0.0000060
865.9	-0.0000189
864.0	-0.0000258
862.1	-0.0000190
860.1	-0.0000132
858.2	-0.0000283
856.3	-0.0000522
854.4	-0.0000487
852.4	-0.0000189
850.5	0.0000010
848.6	0.0000045
846.6	0.0000125
844.7	0.0000241
842.8	0.0000098
840.9	-0.0000376
838.9	-0.0000727
837.0	-0.0000504
835.1	-0.0000045
833.1	0.0000096
831.2	0.0000026
829.3	-0.0000003
827.4	-0.0000103
825.4	-0.0000200
823.5	-0.0000122
821.6	-0.0000073
819.6	-0.0000035
817.7	0.0000195
815.8	0.0000212
813.9	-0.0000124
811.9	-0.0000277
810.0	-0.0000097
808.1	0.0000086
806.1	0.0000038
804.2	-0.0000067
802.3	0.0000113
800.4	0.0000516
798.4	0.0000804
796.5	0.0000783
794.6	0.0000706
792.6	0.0000921
790.7	0.0001006
788.8	0.0000430
786.9	-0.0000230
784.9	-0.0000258
783.0	0.0000037
781.1	0.0000117
779.1	-0.0000027
777.2	-0.0000074
775.3	0.0000057
773.4	0.0000006
771.4	-0.0000233
769.5	-0.0000225
767.6	-0.0000339
765.6	-0.0000852
763.7	-0.0000836
761.8	0.0000028
759.9	0.0000737
757.9	0.0000770
756.0	0.0000350
754.1	-0.0000347
752.1	-0.0000887
750.2	-0.0001129
748.3	-0.0001471
746.4	-0.0001784
744.4	-0.0001895
742.5	-0.0002134
740.6	-0.0002584
738.6	-0.0003067
736.7	-0.0003374
734.8	-0.0003456
732.9	-0.0003561
730.9	-0.0003678
729.0	-0.0003556
727.1	-0.0003712
725.1	-0.0004544
723.2	-0.0005675
721.3	-0.0006430
719.4	-0.0006561
717.4	-0.0006972
715.5	-0.0007301
713.6	-0.0006792
711.6	-0.0006983
709.7	-0.0008302
707.8	-0.0009611
705.9	-0.0010549
703.9	-0.0010498
702.0	-0.0009201
700.1	-0.0008233
698.1	-0.0008481
696.2	-0.0009276
694.3	-0.0009949
692.4	-0.0010022
690.4	-0.0009981
688.5	-0.0009773
686.6	-0.0009104
684.6	-0.0008884
682.7	-0.0008598
680.8	-0.0007499
678.9	-0.0006432
676.9	-0.0006568
675.0	-0.0007432
673.1	-0.0007118
671.1	-0.0005813
669.2	-0.0004787
667.3	-0.0003932
665.4	-0.0003128
663.4	-0.0002536
661.5	-0.0002847
659.6	-0.0005626
657.6	-0.0009641
655.7	-0.0010116
653.8	-0.0006019
651.9	-0.0002503
649.9	-0.0003150
648.0	-0.0005710
646.1	-0.0006939
644.1	-0.0006390
642.2	-0.0005709
640.3	-0.0006332
638.4	-0.0007373
636.4	-0.0007643
634.5	-0.0007481
632.6	-0.0007692
630.6	-0.0008627
628.7	-0.0009575
626.8	-0.0009936
624.9	-0.0009734
622.9	-0.0009279
621.0	-0.0009436
619.1	-0.0010148
617.1	-0.0010161
615.2	-0.0009675
613.3	-0.0009987
611.4	-0.0010522
609.4	-0.0009573
607.5	-0.0007277
605.6	-0.0006120
603.6	-0.0007395
601.7	-0.0008964
599.8	-0.0009371
