3997.9	-0.0000145
3996.0	-0.0000163
3994.1	-0.0000158
3992.1	-0.0000148
3990.2	-0.0000099
3988.3	-0.0000041
3986.3	-0.0000013
3984.4	0.0000006
3982.5	0.0000002
3980.6	-0.0000066
3978.6	-0.0000153
3976.7	-0.0000172
3974.8	-0.0000123
3972.8	-0.0000108
3970.9	-0.0000137
3969.0	-0.0000146
3967.1	-0.0000163
3965.1	-0.0000141
3963.2	-0.0000050
3961.3	-0.0000019
3959.3	-0.0000108
3957.4	-0.0000200
3955.5	-0.0000203
3953.6	-0.0000046
3951.6	0.0000291
3949.7	0.0000579
3947.8	0.0000556
3945.8	0.0000400
3943.9	0.0000378
3942.0	0.0000280
3940.1	-0.0000035
3938.1	-0.0000212
3936.2	0.0000028
3934.3	0.0000565
3932.3	0.0000885
3930.4	0.0000625
3928.5	0.0000200
3926.6	0.0000113
3924.6	0.0000242
3922.7	0.0000415
3920.8	0.0000754
3918.8	0.0001015
3916.9	0.0000757
3915.0	0.0000156
3913.1	-0.0000259
3911.1	-0.0000395
3909.2	-0.0000212
3907.3	0.0000703
3905.3	0.0002113
3903.4	0.0003023
3901.5	0.0003023
3899.6	0.0002268
3897.6	0.0001055
3895.7	0.0000329
3893.8	0.0000791
3891.8	0.0001443
3889.9	0.0001433
3888.0	0.0001812
3886.1	0.0002541
3884.1	0.0002339
3882.2	0.0001935
3880.3	0.0001722
3878.3	0.0001029
3876.4	0.0000693
3874.5	0.0001277
3872.6	0.0002683
3870.6	0.0004105
3868.7	0.0004060
3866.8	0.0003530
3864.8	0.0003532
3862.9	0.0002831
3861.0	0.0001387
3859.1	0.0001094
3857.1	0.0004483
3855.2	0.0010812
3853.3	0.0013358
3851.3	0.0008815
3849.4	0.0002862
3847.5	0.0000256
3845.6	0.0000261
3843.6	0.0001074
3841.7	0.0002465
3839.8	0.0004511
3837.8	0.0005567
3835.9	0.0004578
3834.0	0.0003101
3832.1	0.0002113
3830.1	0.0001229
3828.2	0.0000674
3826.3	0.0000680
3824.3	0.0001537
3822.4	0.0003162
3820.5	0.0003887
3818.6	0.0003857
3816.6	0.0003982
3814.7	0.0002723
3812.8	0.0000570
3810.8	0.0000260
3808.9	0.0002097
3807.0	0.0003529
3805.1	0.0003689
3803.1	0.0004517
3801.2	0.0004935
3799.3	0.0003340
3797.3	0.0001772
3795.4	0.0000870
3793.5	-0.0000085
3791.6	-0.0000580
3789.6	-0.0000541
3787.7	-0.0000368
3785.8	-0.0000218
3783.8	-0.0000105
3781.9	0.0000254
3780.0	0.0000647
3778.1	0.0000394
3776.1	-0.0000194
3774.2	-0.0000204
3772.3	0.0000557
3770.3	0.0001338
3768.4	0.0001442
3766.5	0.0001104
3764.6	0.0000651
3762.6	0.0000642
3760.7	0.0001437
3758.8	0.0001842
3756.8	0.0001661
3754.9	0.0002842
3753.0	0.0006137
3751.1	0.0009079
3749.1	0.0009287
3747.2	0.0009585
3745.3	0.0011269
3743.3	0.0009355
3741.4	0.0004457
3739.5	0.0002623
3737.6	0.0004046
3735.6	0.0005353
3733.7	0.0005080
3731.8	0.0003494
3729.8	0.0001887
3727.9	0.0001486
3726.0	0.0001721
3724.1	0.0001546
3722.1	0.0001179
3720.2	0.0000754
3718.3	0.0000293
3716.3	0.0000689
3714.4	0.0002808
3712.5	0.0004892
3710.6	0.0004133
3708.6	0.0001630
3706.7	0.0000042
3704.8	0.0000050
3702.8	0.0000788
3700.9	0.0000816
3699.0	0.0000062
3697.1	-0.0000445
3695.1	-0.0000119
3693.2	0.0001372
3691.3	0.0003928
3689.3	0.0005548
3687.4	0.0004112
3685.5	0.0001285
3683.6	-0.0000079
3681.6	0.0000119
3679.7	0.0001511
3677.8	0.0004610
3675.8	0.0007159
3673.9	0.0006925
3672.0	0.0006239
3670.1	0.0005543
3668.1	0.0003063
3666.2	0.0000487
3664.3	-0.0000494
3662.3	-0.0000526
3660.4	0.0000045
3658.5	0.0001552
3656.6	0.0002774
3654.6	0.0002688
3652.7	0.0003590
3650.8	0.0006101
3648.8	0.0006752
3646.9	0.0004331
3645.0	0.0001516
3643.1	0.0000167
3641.1	-0.0000174
3639.2	-0.0000269
3637.3	-0.0000131
3635.3	0.0000323
3633.4	0.0001380
3631.5	0.0003774
3629.6	0.0005776
3627.6	0.0004455
3625.7	0.0001513
3623.8	0.0000309
3621.8	0.0001006
3619.9	0.0002022
3618.0	0.0002078
3616.1	0.0001696
3614.1	0.0001978
3612.2	0.0002700
3610.3	0.0003184
3608.3	0.0002742
3606.4	0.0001354
3604.5	0.0000211
3602.6	-0.0000022
3600.6	0.0000168
3598.7	0.0000358
3596.8	0.0000509
3594.8	0.0000534
3592.9	0.0000394
3591.0	0.0000591
3589.1	0.0001364
3587.1	0.0001679
3585.2	0.0000940
3583.3	0.0000082
3581.3	-0.0000204
3579.4	-0.0000148
3577.5	-0.0000096
3575.6	-0.0000145
3573.6	-0.0000190
3571.7	0.0000148
3569.8	0.0001166
3567.8	0.0002120
3565.9	0.0001896
3564.0	0.0000887
3562.1	0.0000180
3560.1	-0.0000078
3558.2	-0.0000181
3556.3	-0.0000199
3554.3	-0.0000104
3552.4	-0.0000029
3550.5	0.0000010
3548.6	0.0000301
3546.6	0.0000626
3544.7	0.0000470
3542.8	0.0000049
3540.8	-0.0000136
3538.9	-0.0000079
3537.0	-0.0000051
3535.1	-0.0000152
3533.1	-0.0000206
3531.2	-0.0000071
3529.3	0.0000141
3527.3	0.0000281
3525.4	0.0000332
3523.5	0.0000247
3521.6	0.0000021
3519.6	-0.0000179
3517.7	-0.0000242
3515.8	-0.0000213
3513.8	-0.0000122
3511.9	0.0000030
3510.0	0.0000183
3508.1	0.0000235
3506.1	0.0000255
3504.2	0.0000252
3502.3	0.0000083
3500.3	-0.0000148
3498.4	-0.0000178
3496.5	-0.0000072
3494.6	-0.0000060
3492.6	-0.0000136
3490.7	-0.0000131
3488.8	-0.0000053
3486.8	-0.0000064
3484.9	-0.0000149
3483.0	-0.0000153
3481.1	-0.0000133
3479.1	-0.0000177
3477.2	-0.0000210
3475.3	-0.0000256
3473.3	-0.0000329
3471.4	-0.0000316
3469.5	-0.0000239
3467.6	-0.0000218
3465.6	-0.0000184
3463.7	-0.0000049
3461.8	0.0000029
3459.8	-0.0000063
3457.9	-0.0000219
3456.0	-0.0000356
3454.1	-0.0000493
3452.1	-0.0000592
3450.2	-0.0000505
3448.3	-0.0000293
3446.3	-0.0000223
3444.4	-0.0000301
3442.5	-0.0000339
3440.6	-0.0000320
3438.6	-0.0000289
3436.7	-0.0000263
3434.8	-0.0000285
3432.8	-0.0000347
3430.9	-0.0000434
3429.0	-0.0000525
3427.1	-0.0000561
3425.1	-0.0000509
3423.2	-0.0000347
3421.3	-0.0000162
3419.3	-0.0000135
3417.4	-0.0000277
3415.5	-0.0000453
3413.6	-0.0000528
3411.6	-0.0000452
3409.7	-0.0000347
3407.8	-0.0000337
3405.8	-0.0000326
3403.9	-0.0000229
3402.0	-0.0000143
3400.1	-0.0000105
3398.1	-0.0000118
3396.2	-0.0000258
3394.3	-0.0000441
3392.3	-0.0000485
3390.4	-0.0000429
3388.5	-0.0000429
3386.6	-0.0000493
3384.6	-0.0000525
3382.7	-0.0000505
3380.8	-0.0000457
3378.8	-0.0000467
3376.9	-0.0000609
3375.0	-0.0000731
3373.1	-0.0000633
3371.1	-0.0000419
3369.2	-0.0000335
3367.3	-0.0000451
3365.3	-0.0000622
3363.4	-0.0000671
3361.5	-0.0000562
3359.6	-0.0000421
3357.6	-0.0000348
3355.7	-0.0000336
3353.8	-0.0000413
3351.8	-0.0000581
3349.9	-0.0000705
3348.0	-0.0000709
3346.1	-0.0000682
3344.1	-0.0000680
3342.2	-0.0000686
3340.3	-0.0000729
3338.3	-0.0000776
3336.4	-0.0000762
3334.5	-0.0000755
3332.6	-0.0000787
3330.6	-0.0000769
3328.7	-0.0000666
3326.8	-0.0000572
3324.8	-0.0000582
3322.9	-0.0000700
3321.0	-0.0000829
3319.1	-0.0000831
3317.1	-0.0000699
3315.2	-0.0000587
3313.3	-0.0000585
3311.3	-0.0000646
3309.4	-0.0000707
3307.5	-0.0000703
3305.6	-0.0000615
3303.6	-0.0000563
3301.7	-0.0000588
3299.8	-0.0000635
3297.8	-0.0000761
3295.9	-0.0000944
3294.0	-0.0000952
3292.1	-0.0000790
3290.1	-0.0000731
3288.2	-0.0000752
3286.3	-0.0000647
3284.3	-0.0000508
3282.4	-0.0000513
3280.5	-0.0000594
3278.6	-0.0000605
3276.6	-0.0000593
3274.7	-0.0000597
3272.8	-0.0000552
3270.8	-0.0000482
3268.9	-0.0000448
3267.0	-0.0000405
3265.1	-0.0000309
3263.1	-0.0000263
3261.2	-0.0000321
3259.3	-0.0000357
3257.3	-0.0000335
3255.4	-0.0000370
3253.5	-0.0000495
3251.6	-0.0000627
3249.6	-0.0000641
3247.7	-0.0000535
3245.8	-0.0000354
3243.8	-0.0000204
3241.9	-0.0000102
3240.0	0.0000005
3238.1	0.0000086
3236.1	0.0000121
3234.2	0.0000143
3232.3	0.0000150
3230.3	0.0000105
3228.4	0.0000010
3226.5	-0.0000047
3224.6	0.0000047
3222.6	0.0000229
3220.7	0.0000333
3218.8	0.0000362
3216.8	0.0000375
3214.9	0.0000325
3213.0	0.0000218
3211.1	0.0000175
3209.1	0.0000220
3207.2	0.0000234
3205.3	0.0000169
3203.3	0.0000098
3201.4	0.0000071
3199.5	0.0000072
3197.6	0.0000100
3195.6	0.0000131
3193.7	0.0000086
3191.8	0.0000020
3189.8	0.0000026
3187.9	0.0000066
3186.0	0.0000085
3184.1	0.0000101
3182.1	0.0000140
3180.2	0.0000184
3178.3	0.0000150
3176.3	0.0000065
3174.4	0.0000037
3172.5	0.0000049
3170.6	0.0000082
3168.6	0.0000115
3166.7	0.0000104
3164.8	0.0000083
3162.8	0.0000072
3160.9	0.0000071
3159.0	0.0000111
3157.1	0.0000175
3155.1	0.0000200
3153.2	0.0000168
3151.3	0.0000117
3149.3	0.0000092
3147.4	0.0000107
3145.5	0.0000138
3143.6	0.0000145
3141.6	0.0000131
3139.7	0.0000130
3137.8	0.0000124
3135.8	0.0000087
3133.9	0.0000013
3132.0	-0.0000101
3130.1	-0.0000189
3128.1	-0.0000170
3126.2	-0.0000081
3124.3	-0.0000029
3122.3	-0.0000040
3120.4	-0.0000047
3118.5	-0.0000019
3116.6	-0.0000022
3114.6	-0.0000055
3112.7	-0.0000033
3110.8	-0.0000019
3108.8	-0.0000105
3106.9	-0.0000244
3105.0	-0.0000337
3103.1	-0.0000335
3101.1	-0.0000306
3099.2	-0.0000312
3097.3	-0.0000344
3095.3	-0.0000394
3093.4	-0.0000422
3091.5	-0.0000373
3089.6	-0.0000303
3087.6	-0.0000288
3085.7	-0.0000324
3083.8	-0.0000375
3081.8	-0.0000378
3079.9	-0.0000365
3078.0	-0.0000446
3076.1	-0.0000545
3074.1	-0.0000514
3072.2	-0.0000382
3070.3	-0.0000217
3068.3	-0.0000087
3066.4	-0.0000077
3064.5	-0.0000121
3062.6	-0.0000122
3060.6	-0.0000095
3058.7	-0.0000053
3056.8	0.0000006
3054.8	0.0000043
3052.9	0.0000006
3051.0	-0.0000071
3049.1	-0.0000103
3047.1	-0.0000051
3045.2	-0.0000044
3043.3	-0.0000119
3041.3	-0.0000218
3039.4	-0.0000279
3037.5	-0.0000278
3035.6	-0.0000222
3033.6	-0.0000103
3031.7	0.0000013
3029.8	0.0000036
3027.8	-0.0000001
3025.9	-0.0000030
3024.0	-0.0000040
3022.1	-0.0000064
3020.1	-0.0000155
3018.2	-0.0000277
3016.3	-0.0000316
3014.3	-0.0000218
3012.4	-0.0000075
3010.5	-0.0000018
3008.6	-0.0000065
3006.6	-0.0000143
3004.7	-0.0000168
3002.8	-0.0000150
3000.8	-0.0000166
2998.9	-0.0000207
2997.0	-0.0000201
2995.1	-0.0000136
2993.1	-0.0000092
2991.2	-0.0000154
2989.3	-0.0000269
2987.3	-0.0000339
2985.4	-0.0000362
2983.5	-0.0000339
2981.6	-0.0000242
2979.6	-0.0000140
2977.7	-0.0000144
2975.8	-0.0000205
2973.8	-0.0000217
2971.9	-0.0000211
2970.0	-0.0000217
2968.1	-0.0000189
2966.1	-0.0000133
2964.2	-0.0000106
2962.3	-0.0000147
2960.3	-0.0000178
2958.4	-0.0000110
2956.5	-0.0000007
2954.6	0.0000030
2952.6	-0.0000009
2950.7	-0.0000084
2948.8	-0.0000161
2946.8	-0.0000185
2944.9	-0.0000125
2943.0	-0.0000065
2941.1	-0.0000120
2939.1	-0.0000264
2937.2	-0.0000363
2935.3	-0.0000365
2933.3	-0.0000301
2931.4	-0.0000201
2929.5	-0.0000077
2927.6	0.0000049
2925.6	0.0000093
2923.7	-0.0000000
2921.8	-0.0000120
2919.8	-0.0000143
2917.9	-0.0000073
2916.0	-0.0000009
2914.1	-0.0000029
2912.1	-0.0000112
2910.2	-0.0000181
2908.3	-0.0000198
2906.3	-0.0000198
2904.4	-0.0000221
2902.5	-0.0000231
2900.6	-0.0000212
2898.6	-0.0000211
2896.7	-0.0000230
2894.8	-0.0000210
2892.8	-0.0000191
2890.9	-0.0000239
2889.0	-0.0000303
2887.1	-0.0000352
2885.1	-0.0000371
2883.2	-0.0000322
2881.3	-0.0000262
2879.3	-0.0000263
2877.4	-0.0000266
2875.5	-0.0000227
2873.6	-0.0000213
2871.6	-0.0000243
2869.7	-0.0000267
2867.8	-0.0000284
2865.8	-0.0000288
2863.9	-0.0000244
2862.0	-0.0000181
2860.1	-0.0000157
2858.1	-0.0000165
2856.2	-0.0000176
2854.3	-0.0000158
2852.3	-0.0000122
2850.4	-0.0000154
2848.5	-0.0000235
2846.6	-0.0000235
2844.6	-0.0000179
2842.7	-0.0000180
2840.8	-0.0000227
2838.8	-0.0000253
2836.9	-0.0000288
2835.0	-0.0000367
2833.1	-0.0000424
2831.1	-0.0000408
2829.2	-0.0000369
2827.3	-0.0000350
2825.3	-0.0000323
2823.4	-0.0000282
2821.5	-0.0000258
2819.6	-0.0000276
2817.6	-0.0000352
2815.7	-0.0000389
2813.8	-0.0000318
2811.8	-0.0000248
2809.9	-0.0000265
2808.0	-0.0000323
2806.1	-0.0000368
2804.1	-0.0000393
2802.2	-0.0000396
2800.3	-0.0000338
2798.3	-0.0000256
2796.4	-0.0000240
2794.5	-0.0000282
2792.6	-0.0000303
2790.6	-0.0000283
2788.7	-0.0000254
2786.8	-0.0000245
2784.8	-0.0000238
2782.9	-0.0000222
2781.0	-0.0000228
2779.1	-0.0000281
2777.1	-0.0000342
2775.2	-0.0000349
2773.3	-0.0000321
2771.3	-0.0000334
2769.4	-0.0000368
2767.5	-0.0000373
2765.6	-0.0000377
2763.6	-0.0000386
2761.7	-0.0000364
2759.8	-0.0000307
2757.8	-0.0000267
2755.9	-0.0000292
2754.0	-0.0000312
2752.1	-0.0000251
2750.1	-0.0000166
2748.2	-0.0000144
2746.3	-0.0000200
2744.3	-0.0000323
2742.4	-0.0000458
2740.5	-0.0000494
2738.6	-0.0000434
2736.6	-0.0000374
2734.7	-0.0000330
2732.8	-0.0000294
2730.8	-0.0000274
2728.9	-0.0000248
2727.0	-0.0000251
2725.1	-0.0000339
2723.1	-0.0000401
2721.2	-0.0000356
2719.3	-0.0000288
2717.3	-0.0000254
2715.4	-0.0000242
2713.5	-0.0000237
2711.6	-0.0000232
2709.6	-0.0000230
2707.7	-0.0000265
2705.8	-0.0000335
2703.8	-0.0000351
2701.9	-0.0000308
2700.0	-0.0000312
2698.1	-0.0000351
2696.1	-0.0000365
2694.2	-0.0000402
2692.3	-0.0000438
2690.3	-0.0000412
2688.4	-0.0000405
2686.5	-0.0000425
2684.6	-0.0000373
2682.6	-0.0000267
2680.7	-0.0000201
2678.8	-0.0000197
2676.8	-0.0000218
2674.9	-0.0000243
2673.0	-0.0000269
2671.1	-0.0000280
2669.1	-0.0000274
2667.2	-0.0000287
2665.3	-0.0000289
2663.3	-0.0000218
2661.4	-0.0000137
2659.5	-0.0000138
2657.6	-0.0000207
2655.6	-0.0000278
2653.7	-0.0000311
2651.8	-0.0000309
2649.8	-0.0000269
2647.9	-0.0000213
2646.0	-0.0000194
2644.1	-0.0000200
2642.1	-0.0000162
2640.2	-0.0000115
2638.3	-0.0000153
2636.3	-0.0000236
2634.4	-0.0000257
2632.5	-0.0000203
2630.6	-0.0000175
2628.6	-0.0000217
2626.7	-0.0000265
2624.8	-0.0000263
2622.8	-0.0000207
2620.9	-0.0000155
2619.0	-0.0000159
2617.1	-0.0000181
2615.1	-0.0000176
2613.2	-0.0000191
2611.3	-0.0000267
2609.3	-0.0000323
2607.4	-0.0000311
2605.5	-0.0000274
2603.6	-0.0000253
2601.6	-0.0000299
2599.7	-0.0000399
2597.8	-0.0000386
2595.8	-0.0000211
2593.9	-0.0000113
2592.0	-0.0000199
2590.1	-0.0000268
2588.1	-0.0000250
2586.2	-0.0000206
2584.3	-0.0000133
2582.3	-0.0000074
2580.4	-0.0000069
2578.5	-0.0000103
2576.6	-0.0000177
2574.6	-0.0000222
2572.7	-0.0000193
2570.8	-0.0000168
2568.8	-0.0000208
2566.9	-0.0000256
2565.0	-0.0000232
2563.1	-0.0000120
2561.1	0.0000024
2559.2	0.0000089
2557.3	0.0000039
2555.3	-0.0000049
2553.4	-0.0000109
2551.5	-0.0000146
2549.6	-0.0000146
2547.6	-0.0000090
2545.7	-0.0000014
2543.8	0.0000022
2541.8	-0.0000011
2539.9	-0.0000074
2538.0	-0.0000120
2536.1	-0.0000126
2534.1	-0.0000106
2532.2	-0.0000092
2530.3	-0.0000073
2528.3	-0.0000038
2526.4	-0.0000015
2524.5	-0.0000027
2522.6	-0.0000055
2520.6	-0.0000085
2518.7	-0.0000113
2516.8	-0.0000115
2514.8	-0.0000107
2512.9	-0.0000128
2511.0	-0.0000176
2509.1	-0.0000214
2507.1	-0.0000164
2505.2	-0.0000037
2503.3	0.0000037
2501.3	0.0000002
2499.4	-0.0000073
2497.5	-0.0000113
2495.6	-0.0000110
2493.6	-0.0000109
2491.7	-0.0000137
2489.8	-0.0000158
2487.8	-0.0000170
2485.9	-0.0000206
2484.0	-0.0000203
2482.1	-0.0000136
2480.1	-0.0000075
2478.2	-0.0000051
2476.3	-0.0000046
2474.3	-0.0000041
2472.4	-0.0000070
2470.5	-0.0000141
2468.6	-0.0000175
2466.6	-0.0000137
2464.7	-0.0000093
2462.8	-0.0000088
2460.8	-0.0000104
2458.9	-0.0000131
2457.0	-0.0000159
2455.1	-0.0000196
2453.1	-0.0000239
2451.2	-0.0000241
2449.3	-0.0000201
2447.3	-0.0000163
2445.4	-0.0000118
2443.5	-0.0000047
2441.6	-0.0000022
2439.6	-0.0000068
2437.7	-0.0000092
2435.8	-0.0000100
2433.8	-0.0000159
2431.9	-0.0000206
2430.0	-0.0000185
2428.1	-0.0000169
2426.1	-0.0000183
2424.2	-0.0000189
2422.3	-0.0000217
2420.3	-0.0000237
2418.4	-0.0000181
2416.5	-0.0000129
2414.6	-0.0000150
2412.6	-0.0000188
2410.7	-0.0000209
2408.8	-0.0000214
2406.8	-0.0000233
2404.9	-0.0000299
2403.0	-0.0000332
2401.1	-0.0000278
2399.1	-0.0000213
2397.2	-0.0000223
2395.3	-0.0000268
2393.3	-0.0000272
2391.4	-0.0000266
2389.5	-0.0000268
2387.6	-0.0000237
2385.6	-0.0000184
2383.7	-0.0000145
2381.8	-0.0000134
2379.8	-0.0000107
2377.9	-0.0000051
2376.0	-0.0000004
2374.1	0.0000056
2372.1	0.0000159
2370.2	0.0000266
2368.3	0.0000364
2366.3	0.0000474
2364.4	0.0000562
2362.5	0.0000613
2360.6	0.0000671
2358.6	0.0000711
2356.7	0.0000651
2354.8	0.0000507
2352.8	0.0000305
2350.9	0.0000055
2349.0	-0.0000099
2347.1	-0.0000046
2345.1	0.0000093
2343.2	0.0000211
2341.3	0.0000314
2339.3	0.0000409
2337.4	0.0000487
2335.5	0.0000508
2333.6	0.0000472
2331.6	0.0000450
2329.7	0.0000434
2327.8	0.0000391
2325.8	0.0000339
2323.9	0.0000287
2322.0	0.0000238
2320.1	0.0000207
2318.1	0.0000179
2316.2	0.0000109
2314.3	0.0000012
2312.3	-0.0000035
2310.4	-0.0000022
2308.5	-0.0000011
2306.6	-0.0000015
2304.6	-0.0000028
2302.7	-0.0000063
2300.8	-0.0000111
2298.8	-0.0000147
2296.9	-0.0000175
2295.0	-0.0000212
2293.1	-0.0000251
2291.1	-0.0000262
2289.2	-0.0000243
2287.3	-0.0000215
2285.3	-0.0000173
2283.4	-0.0000113
2281.5	-0.0000078
2279.6	-0.0000104
2277.6	-0.0000137
2275.7	-0.0000150
2273.8	-0.0000172
2271.8	-0.0000201
2269.9	-0.0000217
2268.0	-0.0000230
2266.1	-0.0000268
2264.1	-0.0000331
2262.2	-0.0000345
2260.3	-0.0000293
2258.3	-0.0000242
2256.4	-0.0000205
2254.5	-0.0000146
2252.6	-0.0000053
2250.6	0.0000081
2248.7	0.0000216
2246.8	0.0000245
2244.8	0.0000148
2242.9	0.0000009
2241.0	-0.0000091
2239.1	-0.0000163
2237.1	-0.0000266
2235.2	-0.0000377
2233.3	-0.0000426
2231.3	-0.0000422
2229.4	-0.0000435
2227.5	-0.0000449
2225.6	-0.0000418
2223.6	-0.0000377
2221.7	-0.0000363
2219.8	-0.0000394
2217.8	-0.0000447
2215.9	-0.0000458
2214.0	-0.0000431
2212.1	-0.0000428
2210.1	-0.0000423
2208.2	-0.0000401
2206.3	-0.0000387
2204.3	-0.0000372
2202.4	-0.0000377
2200.5	-0.0000403
2198.6	-0.0000416
2196.6	-0.0000418
2194.7	-0.0000404
2192.8	-0.0000390
2190.8	-0.0000390
2188.9	-0.0000368
2187.0	-0.0000311
2185.1	-0.0000249
2183.1	-0.0000217
2181.2	-0.0000216
2179.3	-0.0000213
2177.3	-0.0000178
2175.4	-0.0000167
2173.5	-0.0000193
2171.6	-0.0000160
2169.6	-0.0000072
2167.7	-0.0000017
2165.8	-0.0000014
2163.8	-0.0000038
2161.9	-0.0000058
2160.0	-0.0000032
2158.1	0.0000027
2156.1	0.0000065
2154.2	0.0000067
2152.3	0.0000051
2150.3	0.0000058
2148.4	0.0000092
2146.5	0.0000124
2144.6	0.0000167
2142.6	0.0000206
2140.7	0.0000199
2138.8	0.0000199
2136.8	0.0000260
2134.9	0.0000326
2133.0	0.0000351
2131.1	0.0000353
2129.1	0.0000342
2127.2	0.0000341
2125.3	0.0000377
2123.3	0.0000450
2121.4	0.0000515
2119.5	0.0000577
2117.6	0.0000644
2115.6	0.0000721
2113.7	0.0000846
2111.8	0.0001013
2109.8	0.0001186
2107.9	0.0001331
2106.0	0.0001444
2104.1	0.0001575
2102.1	0.0001776
2100.2	0.0002074
2098.3	0.0002491
2096.3	0.0003012
2094.4	0.0003521
2092.5	0.0004030
2090.6	0.0007475
2088.6	0.0021831
2086.7	0.0047314
2084.8	0.0066036
2082.8	0.0064032
2080.9	0.0049196
2079.0	0.0034634
2077.1	0.0024510
2075.1	0.0017849
2073.2	0.0013223
2071.3	0.0009811
2069.3	0.0007289
2067.4	0.0005484
2065.5	0.0004171
2063.6	0.0003184
2061.6	0.0002424
2059.7	0.0001802
2057.8	0.0001333
2055.8	0.0001012
2053.9	0.0000770
2052.0	0.0000559
2050.1	0.0000358
2048.1	0.0000173
2046.2	0.0000083
2044.3	0.0000101
2042.3	0.0000068
2040.4	-0.0000084
2038.5	-0.0000197
2036.6	-0.0000152
2034.6	-0.0000027
2032.7	0.0000062
2030.8	0.0000111
2028.8	0.0000163
2026.9	0.0000202
2025.0	0.0000231
2023.1	0.0000319
2021.1	0.0000432
2019.2	0.0000498
2017.3	0.0000479
2015.3	0.0000361
2013.4	0.0000228
2011.5	0.0000138
2009.6	0.0000097
2007.6	0.0000092
2005.7	0.0000067
2003.8	-0.0000003
2001.8	-0.0000058
1999.9	-0.0000037
1998.0	0.0000038
1996.1	0.0000141
1994.1	0.0000323
1992.2	0.0000490
1990.3	0.0000458
1988.3	0.0000296
1986.4	0.0000160
1984.5	0.0000100
1982.6	0.0000128
1980.6	0.0000168
1978.7	0.0000146
1976.8	0.0000100
1974.8	0.0000075
1972.9	0.0000091
1971.0	0.0000197
1969.1	0.0000380
1967.1	0.0000452
1965.2	0.0000351
1963.3	0.0000235
1961.4	0.0000189
1959.4	0.0000199
1957.5	0.0000260
1955.6	0.0000327
1953.6	0.0000323
1951.7	0.0000273
1949.8	0.0000298
1947.9	0.0000425
1945.9	0.0000652
1944.0	0.0000953
1942.1	0.0001053
1940.1	0.0000822
1938.2	0.0000582
1936.3	0.0000518
1934.4	0.0000546
1932.4	0.0000606
1930.5	0.0000645
1928.6	0.0000655
1926.6	0.0000785
1924.7	0.0001106
1922.8	0.0001399
1920.9	0.0001736
1918.9	0.0002197
1917.0	0.0002259
1915.1	0.0001966
1913.1	0.0002079
1911.2	0.0002777
1909.3	0.0003859
1907.4	0.0005439
1905.4	0.0007849
1903.5	0.0011300
1901.6	0.0015676
1899.6	0.0020529
1897.7	0.0025062
1895.8	0.0028252
1893.9	0.0029395
1891.9	0.0028702
1890.0	0.0026671
1888.1	0.0023624
1886.1	0.0020264
1884.2	0.0017278
1882.3	0.0014755
1880.4	0.0012587
1878.4	0.0010742
1876.5	0.0009159
1874.6	0.0007806
1872.6	0.0006989
1870.7	0.0006808
1868.8	0.0006286
1866.9	0.0004780
1864.9	0.0003171
1863.0	0.0002194
1861.1	0.0001605
1859.1	0.0001128
1857.2	0.0000742
1855.3	0.0000499
1853.4	0.0000356
1851.4	0.0000296
1849.5	0.0000461
1847.6	0.0001330
1845.6	0.0002811
1843.7	0.0003139
1841.8	0.0001735
1839.9	0.0000494
1837.9	0.0000227
1836.0	0.0000232
1834.1	0.0000447
1832.1	0.0001196
1830.2	0.0001841
1828.3	0.0001729
1826.4	0.0001400
1824.4	0.0001036
1822.5	0.0000422
1820.6	0.0000033
1818.6	0.0000031
1816.7	0.0000074
1814.8	0.0000116
1812.9	0.0000353
1810.9	0.0000585
1809.0	0.0000446
1807.1	0.0000136
1805.1	0.0000142
1803.2	0.0000637
1801.3	0.0001182
1799.4	0.0001197
1797.4	0.0000968
1795.5	0.0001505
1793.6	0.0002658
1791.6	0.0002730
1789.7	0.0001492
1787.8	0.0000712
1785.9	0.0000893
1783.9	0.0001047
1782.0	0.0000919
1780.1	0.0000778
1778.1	0.0000737
1776.2	0.0001700
1774.3	0.0004109
1772.4	0.0005621
1770.4	0.0004559
1768.5	0.0002699
1766.6	0.0001472
1764.6	0.0001192
1762.7	0.0001720
1760.8	0.0001861
1758.9	0.0001582
1756.9	0.0001471
1755.0	0.0001716
1753.1	0.0002935
1751.1	0.0004133
1749.2	0.0003651
1747.3	0.0002329
1745.4	0.0001647
1743.4	0.0001824
1741.5	0.0002485
1739.6	0.0002901
1737.6	0.0004037
1735.7	0.0007061
1733.8	0.0008389
1731.9	0.0005584
1729.9	0.0002351
1728.0	0.0000988
1726.1	0.0000634
1724.1	0.0000688
1722.2	0.0001445
1720.3	0.0004305
1718.4	0.0008118
1716.4	0.0008611
1714.5	0.0005439
1712.6	0.0002394
1710.6	0.0001286
1708.7	0.0001752
1706.8	0.0002885
1704.9	0.0003988
1702.9	0.0006422
1701.0	0.0009640
1699.1	0.0010480
1697.1	0.0009537
1695.2	0.0007476
1693.3	0.0003857
1691.4	0.0001541
1689.4	0.0002005
1687.5	0.0005309
1685.6	0.0009773
1683.6	0.0009776
1681.7	0.0005225
1679.8	0.0002048
1677.9	0.0002480
1675.9	0.0004051
1674.0	0.0004225
1672.1	0.0004006
1670.1	0.0004385
1668.2	0.0003629
1666.3	0.0002240
1664.4	0.0002216
1662.4	0.0002435
1660.5	0.0001653
1658.6	0.0001430
1656.6	0.0004998
1654.7	0.0012479
1652.8	0.0015697
1650.9	0.0010820
1648.9	0.0006753
1647.0	0.0006902
1645.1	0.0005725
1643.1	0.0002701
1641.2	0.0001232
1639.3	0.0002492
1637.4	0.0005680
1635.4	0.0007145
1633.5	0.0004652
1631.6	0.0001780
1629.6	0.0001225
1627.7	0.0001703
1625.8	0.0002360
1623.9	0.0002847
1621.9	0.0002524
1620.0	0.0003195
1618.1	0.0005901
1616.1	0.0006568
1614.2	0.0003670
1612.3	0.0001290
1610.4	0.0000929
1608.4	0.0001002
1606.5	0.0000881
1604.6	0.0000759
1602.6	0.0000681
1600.7	0.0000575
1598.8	0.0000535
1596.9	0.0000620
1594.9	0.0000686
1593.0	0.0000652
1591.1	0.0000668
1589.1	0.0000749
1587.2	0.0000747
1585.3	0.0000667
1583.4	0.0000624
1581.4	0.0000942
1579.5	0.0003006
1577.6	0.0006737
1575.6	0.0007694
1573.7	0.0004949
1571.8	0.0003674
1569.9	0.0004280
1567.9	0.0003586
1566.0	0.0002357
1564.1	0.0002955
1562.1	0.0007364
1560.2	0.0013909
1558.3	0.0015600
1556.4	0.0011319
1554.4	0.0006882
1552.5	0.0004302
1550.6	0.0002846
1548.6	0.0002510
1546.7	0.0003533
1544.8	0.0006210
1542.9	0.0010411
1540.9	0.0013993
1539.0	0.0012733
1537.1	0.0007849
1535.1	0.0005200
1533.2	0.0004721
1531.3	0.0003626
1529.4	0.0002999
1527.4	0.0003757
1525.5	0.0005219
1523.6	0.0007594
1521.6	0.0009372
1519.7	0.0008246
1517.8	0.0005773
1515.9	0.0004057
1513.9	0.0003223
1512.0	0.0003576
1510.1	0.0006251
1508.1	0.0010991
1506.2	0.0012659
1504.3	0.0008331
1502.4	0.0003627
1500.4	0.0002928
1498.5	0.0004444
1496.6	0.0005004
1494.6	0.0003816
1492.7	0.0003052
1490.8	0.0003629
1488.9	0.0003732
1486.9	0.0002660
1485.0	0.0001534
1483.1	0.0001117
1481.1	0.0001177
1479.2	0.0001536
1477.3	0.0002571
1475.4	0.0004352
1473.4	0.0005685
1471.5	0.0004786
1469.6	0.0002550
1467.6	0.0001913
1465.7	0.0002735
1463.8	0.0002640
1461.9	0.0002338
1459.9	0.0004846
1458.0	0.0008783
1456.1	0.0008681
1454.1	0.0004615
1452.2	0.0001718
1450.3	0.0001397
1448.4	0.0001682
1446.4	0.0001304
1444.5	0.0000598
1442.6	0.0000362
1440.6	0.0001190
1438.7	0.0003372
1436.8	0.0004829
1434.9	0.0003582
1432.9	0.0001812
1431.0	0.0001448
1429.1	0.0001418
1427.1	0.0001169
1425.2	0.0001173
1423.3	0.0001868
1421.4	0.0003731
1419.4	0.0005137
1417.5	0.0003956
1415.6	0.0001791
1413.6	0.0000799
1411.7	0.0000636
1409.8	0.0000626
1407.9	0.0000828
1405.9	0.0001237
1404.0	0.0001373
1402.1	0.0001469
1400.1	0.0002044
1398.2	0.0002661
1396.3	0.0003063
1394.4	0.0002903
1392.4	0.0001898
1390.5	0.0001272
1388.6	0.0001557
1386.6	0.0001503
1384.7	0.0000804
1382.8	0.0000386
1380.9	0.0000463
1378.9	0.0000676
1377.0	0.0001000
1375.1	0.0001291
1373.1	0.0001143
1371.2	0.0000782
1369.3	0.0000657
1367.4	0.0000644
1365.4	0.0000794
1363.5	0.0001194
1361.6	0.0001316
1359.6	0.0000968
1357.7	0.0000625
1355.8	0.0000489
1353.9	0.0000376
1351.9	0.0000296
1350.0	0.0000296
1348.1	0.0000242
1346.1	0.0000154
1344.2	0.0000256
1342.3	0.0000673
1340.4	0.0001144
1338.4	0.0001185
1336.5	0.0000798
1334.6	0.0000431
1332.6	0.0000283
1330.7	0.0000256
1328.8	0.0000254
1326.9	0.0000256
1324.9	0.0000274
1323.0	0.0000301
1321.1	0.0000337
1319.1	0.0000346
1317.2	0.0000265
1315.3	0.0000159
1313.4	0.0000077
1311.4	0.0000005
1309.5	-0.0000015
1307.6	-0.0000010
1305.6	-0.0000063
1303.7	-0.0000142
1301.8	-0.0000153
1299.9	-0.0000100
1297.9	-0.0000041
1296.0	0.0000017
1294.1	0.0000064
1292.1	0.0000070
1290.2	0.0000028
1288.3	-0.0000053
1286.4	-0.0000145
1284.4	-0.0000174
1282.5	-0.0000153
1280.6	-0.0000152
1278.6	-0.0000139
1276.7	-0.0000113
1274.8	-0.0000128
1272.9	-0.0000134
1270.9	-0.0000082
1269.0	-0.0000017
1267.1	0.0000026
1265.1	0.0000039
1263.2	0.0000035
1261.3	0.0000062
1259.4	0.0000102
1257.4	0.0000075
1255.5	0.0000005
1253.6	0.0000001
1251.6	0.0000066
1249.7	0.0000108
1247.8	0.0000090
1245.9	0.0000035
1243.9	-0.0000006
1242.0	-0.0000030
1240.1	-0.0000066
1238.1	-0.0000080
1236.2	-0.0000064
1234.3	-0.0000081
1232.4	-0.0000110
1230.4	-0.0000084
1228.5	0.0000024
1226.6	0.0000171
1224.6	0.0000247
1222.7	0.0000216
1220.8	0.0000169
1218.9	0.0000127
1216.9	0.0000068
1215.0	0.0000057
1213.1	0.0000134
1211.1	0.0000237
1209.2	0.0000270
1207.3	0.0000219
1205.4	0.0000140
1203.4	0.0000074
1201.5	0.0000038
1199.6	0.0000046
1197.6	0.0000077
1195.7	0.0000095
1193.8	0.0000116
1191.9	0.0000145
1189.9	0.0000167
1188.0	0.0000174
1186.1	0.0000112
1184.1	-0.0000111
1182.2	-0.0000292
1180.3	-0.0000011
1178.4	0.0000480
1176.4	0.0000594
1174.5	0.0000411
1172.6	0.0000222
1170.6	0.0000085
1168.7	0.0000005
1166.8	-0.0000045
1164.9	-0.0000094
1162.9	-0.0000108
1161.0	-0.0000066
1159.1	0.0000005
1157.1	0.0000089
1155.2	0.0000144
1153.3	0.0000129
1151.4	0.0000088
1149.4	0.0000021
1147.5	-0.0000083
1145.6	-0.0000151
1143.6	-0.0000121
1141.7	0.0000020
1139.8	0.0000180
1137.9	0.0000231
1135.9	0.0000222
1134.0	0.0000224
1132.1	0.0000199
1130.1	0.0000115
1128.2	0.0000022
1126.3	0.0000000
1124.4	0.0000048
1122.4	0.0000094
1120.5	0.0000101
1118.6	0.0000110
1116.6	0.0000145
1114.7	0.0000141
1112.8	0.0000074
1110.9	0.0000003
1108.9	-0.0000024
1107.0	0.0000018
1105.1	0.0000076
1103.1	0.0000070
1101.2	0.0000035
1099.3	0.0000002
1097.4	-0.0000072
1095.4	-0.0000155
1093.5	-0.0000160
1091.6	-0.0000081
1089.6	-0.0000001
1087.7	-0.0000001
1085.8	-0.0000032
1083.9	-0.0000019
1081.9	-0.0000038
1080.0	-0.0000153
1078.1	-0.0000250
1076.1	-0.0000213
1074.2	-0.0000042
1072.3	0.0000164
1070.4	0.0000265
1068.4	0.0000200
1066.5	0.0000022
1064.6	-0.0000150
1062.6	-0.0000169
1060.7	-0.0000046
1058.8	0.0000033
1056.9	-0.0000040
1054.9	-0.0000106
1053.0	-0.0000085
1051.1	-0.0000135
1049.1	-0.0000268
1047.2	-0.0000322
1045.3	-0.0000293
1043.4	-0.0000287
1041.4	-0.0000268
1039.5	-0.0000176
1037.6	-0.0000144
1035.6	-0.0000232
1033.7	-0.0000284
1031.8	-0.0000229
1029.9	-0.0000160
1027.9	-0.0000132
1026.0	-0.0000139
1024.1	-0.0000155
1022.1	-0.0000135
1020.2	-0.0000094
1018.3	-0.0000046
1016.4	0.0000008
1014.4	-0.0000010
1012.5	-0.0000070
1010.6	-0.0000041
1008.6	0.0000101
1006.7	0.0000263
1004.8	0.0000335
1002.9	0.0000299
1000.9	0.0000255
999.0	0.0000262
997.1	0.0000282
995.1	0.0000292
993.2	0.0000296
991.3	0.0000301
989.4	0.0000312
987.4	0.0000332
985.5	0.0000345
983.6	0.0000369
981.6	0.0000442
979.7	0.0000515
977.8	0.0000542
975.9	0.0000521
973.9	0.0000439
972.0	0.0000371
970.1	0.0000382
968.1	0.0000416
966.2	0.0000402
964.3	0.0000346
962.4	0.0000316
960.4	0.0000292
958.5	0.0000192
956.6	0.0000050
954.6	0.0000013
952.7	0.0000102
950.8	0.0000172
948.9	0.0000087
946.9	-0.0000053
945.0	-0.0000081
943.1	-0.0000081
941.1	-0.0000151
939.2	-0.0000192
937.3	-0.0000174
935.4	-0.0000201
933.4	-0.0000341
931.5	-0.0000588
929.6	-0.0000882
927.6	-0.0001068
925.7	-0.0001057
923.8	-0.0000907
921.9	-0.0000760
919.9	-0.0000782
918.0	-0.0000959
916.1	-0.0001143
914.1	-0.0001319
912.2	-0.0001443
910.3	-0.0001379
908.4	-0.0001206
906.4	-0.0001094
904.5	-0.0001052
902.6	-0.0001120
900.6	-0.0001274
898.7	-0.0001385
896.8	-0.0001509
894.9	-0.0001674
892.9	-0.0001704
891.0	-0.0001615
889.1	-0.0001581
887.1	-0.0001655
885.2	-0.0001784
883.3	-0.0001744
881.4	-0.0001620
879.4	-0.0001796
877.5	-0.0002049
875.6	-0.0002015
873.6	-0.0001881
871.7	-0.0001822
869.8	-0.0001748
867.9	-0.0001722
865.9	-0.0001952
864.0	-0.0002254
862.1	-0.0002251
860.1	-0.0002094
858.2	-0.0002205
856.3	-0.0002436
854.4	-0.0002289
852.4	-0.0001913
850.5	-0.0001822
848.6	-0.0001964
846.6	-0.0001949
844.7	-0.0001681
842.8	-0.0001465
840.9	-0.0001613
838.9	-0.0001968
837.0	-0.0002120
835.1	-0.0002100
833.1	-0.0002136
831.2	-0.0002085
829.3	-0.0001929
827.4	-0.0001935
825.4	-0.0002010
823.5	-0.0001856
821.6	-0.0001487
819.6	-0.0001081
817.7	-0.0000846
815.8	-0.0001007
813.9	-0.0001306
811.9	-0.0001207
810.0	-0.0000818
808.1	-0.0000580
806.1	-0.0000602
804.2	-0.0000771
802.3	-0.0000937
800.4	-0.0000905
798.4	-0.0000544
796.5	-0.0000107
794.6	0.0000114
792.6	0.0000258
790.7	0.0000229
788.8	-0.0000182
786.9	-0.0000430
784.9	-0.0000168
783.0	0.0000076
781.1	0.0000070
779.1	0.0000165
777.2	0.0000432
775.3	0.0000579
773.4	0.0000511
771.4	0.0000485
769.5	0.0000650
767.6	0.0000600
765.6	0.0000083
763.7	-0.0000248
761.8	0.0000190
759.9	0.0001023
757.9	0.0001676
756.0	0.0002081
754.1	0.0002091
752.1	0.0001708
750.2	0.0001585
748.3	0.0002025
746.4	0.0002655
744.4	0.0002995
742.5	0.0002948
740.6	0.0002894
738.6	0.0002833
736.7	0.0002742
734.8	0.0002985
732.9	0.0003468
730.9	0.0003965
729.0	0.0004683
727.1	0.0005334
725.1	0.0005282
723.2	0.0004541
721.3	0.0004165
719.4	0.0004621
717.4	0.0004599
715.5	0.0004224
713.6	0.0005051
711.6	0.0006639
709.7	0.0007693
707.8	0.0007886
705.9	0.0007914
703.9	0.0008329
702.0	0.0008964
700.1	0.0009389
698.1	0.0009322
696.2	0.0008822
694.3	0.0008552
692.4	0.0008456
690.4	0.0007970
688.5	0.0008222
686.6	0.0009467
684.6	0.0010621
682.7	0.0011617
680.8	0.0012038
678.9	0.0011719
676.9	0.0010736
675.0	0.0009638
673.1	0.0009095
671.1	0.0008705
669.2	0.0009339
667.3	0.0011779
665.4	0.0014013
663.4	0.0013999
661.5	0.0011777
659.6	0.0008538
657.6	0.0006609
655.7	0.0008108
653.8	0.0011389
651.9	0.0012786
649.9	0.0011503
648.0	0.0010043
646.1	0.0010047
644.1	0.0010468
642.2	0.0009789
640.3	0.0008486
638.4	0.0008372
636.4	0.0009368
634.5	0.0009900
632.6	0.0009585
630.6	0.0009010
628.7	0.0008524
626.8	0.0008051
624.9	0.0008140
622.9	0.0008518
621.0	0.0007802
619.1	0.0006777
617.1	0.0007028
615.2	0.0007869
613.3	0.0008227
611.4	0.0008178
609.4	0.0008266
607.5	0.0008876
605.6	0.0008986
603.6	0.0007931
601.7	0.0007664
599.8	0.0008631
