3997.9	-0.0000084
3996.0	-0.0000099
3994.1	-0.0000159
3992.1	-0.0000237
3990.2	-0.0000261
3988.3	-0.0000228
3986.3	-0.0000161
3984.4	-0.0000098
3982.5	-0.0000161
3980.6	-0.0000368
3978.6	-0.0000507
3976.7	-0.0000420
3974.8	-0.0000251
3972.8	-0.0000235
3970.9	-0.0000295
3969.0	-0.0000233
3967.1	-0.0000186
3965.1	-0.0000257
3963.2	-0.0000322
3961.3	-0.0000308
3959.3	-0.0000283
3957.4	-0.0000327
3955.5	-0.0000404
3953.6	-0.0000409
3951.6	-0.0000305
3949.7	-0.0000186
3947.8	-0.0000155
3945.8	-0.0000180
3943.9	-0.0000267
3942.0	-0.0000442
3940.1	-0.0000553
3938.1	-0.0000457
3936.2	-0.0000239
3934.3	-0.0000086
3932.3	-0.0000104
3930.4	-0.0000264
3928.5	-0.0000440
3926.6	-0.0000537
3924.6	-0.0000514
3922.7	-0.0000369
3920.8	-0.0000203
3918.8	-0.0000228
3916.9	-0.0000469
3915.0	-0.0000676
3913.1	-0.0000683
3911.1	-0.0000584
3909.2	-0.0000456
3907.3	-0.0000191
3905.3	0.0000169
3903.4	0.0000372
3901.5	0.0000366
3899.6	0.0000240
3897.6	-0.0000048
3895.7	-0.0000322
3893.8	-0.0000300
3891.8	-0.0000177
3889.9	-0.0000148
3888.0	-0.0000015
3886.1	0.0000143
3884.1	0.0000064
3882.2	-0.0000042
3880.3	-0.0000091
3878.3	-0.0000251
3876.4	-0.0000365
3874.5	-0.0000258
3872.6	0.0000100
3870.6	0.0000467
3868.7	0.0000437
3866.8	0.0000273
3864.8	0.0000216
3862.9	-0.0000059
3861.0	-0.0000497
3859.1	-0.0000522
3857.1	0.0000463
3855.2	0.0002087
3853.3	0.0002658
3851.3	0.0001527
3849.4	0.0000136
3847.5	-0.0000468
3845.6	-0.0000502
3843.6	-0.0000339
3841.7	-0.0000029
3839.8	0.0000416
3837.8	0.0000633
3835.9	0.0000373
3834.0	-0.0000010
3832.1	-0.0000270
3830.1	-0.0000451
3828.2	-0.0000489
3826.3	-0.0000454
3824.3	-0.0000365
3822.4	-0.0000112
3820.5	0.0000078
3818.6	0.0000137
3816.6	0.0000132
3814.7	-0.0000201
3812.8	-0.0000633
3810.8	-0.0000570
3808.9	-0.0000061
3807.0	0.0000274
3805.1	0.0000352
3803.1	0.0000587
3801.2	0.0000585
3799.3	0.0000075
3797.3	-0.0000329
3795.4	-0.0000525
3793.5	-0.0000740
3791.6	-0.0000871
3789.6	-0.0000925
3787.7	-0.0000939
3785.8	-0.0000871
3783.8	-0.0000776
3781.9	-0.0000706
3780.0	-0.0000699
3778.1	-0.0000811
3776.1	-0.0000911
3774.2	-0.0000852
3772.3	-0.0000673
3770.3	-0.0000489
3768.4	-0.0000386
3766.5	-0.0000434
3764.6	-0.0000613
3762.6	-0.0000597
3760.7	-0.0000288
3758.8	-0.0000192
3756.8	-0.0000345
3754.9	-0.0000167
3753.0	0.0000529
3751.1	0.0001262
3749.1	0.0001501
3747.2	0.0001750
3745.3	0.0002177
3743.3	0.0001629
3741.4	0.0000422
3739.5	-0.0000025
3737.6	0.0000223
3735.6	0.0000474
3733.7	0.0000430
3731.8	0.0000062
3729.8	-0.0000323
3727.9	-0.0000398
3726.0	-0.0000299
3724.1	-0.0000278
3722.1	-0.0000304
3720.2	-0.0000418
3718.3	-0.0000590
3716.3	-0.0000510
3714.4	0.0000023
3712.5	0.0000510
3710.6	0.0000280
3708.6	-0.0000380
3706.7	-0.0000806
3704.8	-0.0000746
3702.8	-0.0000409
3700.9	-0.0000277
3699.0	-0.0000426
3697.1	-0.0000572
3695.1	-0.0000514
3693.2	-0.0000158
3691.3	0.0000382
3689.3	0.0000613
3687.4	0.0000156
3685.5	-0.0000486
3683.6	-0.0000665
3681.6	-0.0000513
3679.7	-0.0000213
3677.8	0.0000458
3675.8	0.0001097
3673.9	0.0001101
3672.0	0.0000844
3670.1	0.0000525
3668.1	-0.0000020
3666.2	-0.0000462
3664.3	-0.0000622
3662.3	-0.0000605
3660.4	-0.0000372
3658.5	0.0000065
3656.6	0.0000247
3654.6	0.0000005
3652.7	0.0000125
3650.8	0.0000787
3648.8	0.0001017
3646.9	0.0000485
3645.0	-0.0000135
3643.1	-0.0000455
3641.1	-0.0000604
3639.2	-0.0000669
3637.3	-0.0000591
3635.3	-0.0000415
3633.4	-0.0000147
3631.5	0.0000379
3629.6	0.0000759
3627.6	0.0000375
3625.7	-0.0000279
3623.8	-0.0000445
3621.8	-0.0000209
3619.9	0.0000029
3618.0	0.0000065
3616.1	0.0000034
3614.1	0.0000084
3612.2	0.0000201
3610.3	0.0000313
3608.3	0.0000180
3606.4	-0.0000221
3604.5	-0.0000510
3602.6	-0.0000495
3600.6	-0.0000336
3598.7	-0.0000174
3596.8	-0.0000075
3594.8	-0.0000091
3592.9	-0.0000262
3591.0	-0.0000468
3589.1	-0.0000467
3587.1	-0.0000353
3585.2	-0.0000343
3583.3	-0.0000401
3581.3	-0.0000475
3579.4	-0.0000569
3577.5	-0.0000622
3575.6	-0.0000582
3573.6	-0.0000472
3571.7	-0.0000351
3569.8	-0.0000182
3567.8	0.0000006
3565.9	-0.0000026
3564.0	-0.0000288
3562.1	-0.0000511
3560.1	-0.0000568
3558.2	-0.0000521
3556.3	-0.0000496
3554.3	-0.0000521
3552.4	-0.0000544
3550.5	-0.0000541
3548.6	-0.0000485
3546.6	-0.0000479
3544.7	-0.0000619
3542.8	-0.0000733
3540.8	-0.0000677
3538.9	-0.0000526
3537.0	-0.0000415
3535.1	-0.0000440
3533.1	-0.0000559
3531.2	-0.0000635
3529.3	-0.0000594
3527.3	-0.0000502
3525.4	-0.0000496
3523.5	-0.0000576
3521.6	-0.0000621
3519.6	-0.0000638
3517.7	-0.0000701
3515.8	-0.0000774
3513.8	-0.0000803
3511.9	-0.0000744
3510.0	-0.0000616
3508.1	-0.0000509
3506.1	-0.0000469
3504.2	-0.0000498
3502.3	-0.0000596
3500.3	-0.0000688
3498.4	-0.0000664
3496.5	-0.0000587
3494.6	-0.0000576
3492.6	-0.0000624
3490.7	-0.0000694
3488.8	-0.0000745
3486.8	-0.0000742
3484.9	-0.0000688
3483.0	-0.0000586
3481.1	-0.0000500
3479.1	-0.0000507
3477.2	-0.0000561
3475.3	-0.0000561
3473.3	-0.0000477
3471.4	-0.0000399
3469.5	-0.0000424
3467.6	-0.0000495
3465.6	-0.0000498
3463.7	-0.0000444
3461.8	-0.0000408
3459.8	-0.0000413
3457.9	-0.0000434
3456.0	-0.0000461
3454.1	-0.0000525
3452.1	-0.0000613
3450.2	-0.0000638
3448.3	-0.0000578
3446.3	-0.0000477
3444.4	-0.0000420
3442.5	-0.0000449
3440.6	-0.0000488
3438.6	-0.0000470
3436.7	-0.0000459
3434.8	-0.0000503
3432.8	-0.0000531
3430.9	-0.0000548
3429.0	-0.0000603
3427.1	-0.0000576
3425.1	-0.0000468
3423.2	-0.0000405
3421.3	-0.0000370
3419.3	-0.0000362
3417.4	-0.0000453
3415.5	-0.0000559
3413.6	-0.0000547
3411.6	-0.0000445
3409.7	-0.0000350
3407.8	-0.0000325
3405.8	-0.0000320
3403.9	-0.0000266
3402.0	-0.0000249
3400.1	-0.0000325
3398.1	-0.0000403
3396.2	-0.0000449
3394.3	-0.0000455
3392.3	-0.0000380
3390.4	-0.0000287
3388.5	-0.0000296
3386.6	-0.0000361
3384.6	-0.0000349
3382.7	-0.0000273
3380.8	-0.0000218
3378.8	-0.0000220
3376.9	-0.0000303
3375.0	-0.0000385
3373.1	-0.0000329
3371.1	-0.0000198
3369.2	-0.0000162
3367.3	-0.0000256
3365.3	-0.0000390
3363.4	-0.0000422
3361.5	-0.0000303
3359.6	-0.0000158
3357.6	-0.0000061
3355.7	0.0000009
3353.8	0.0000000
3351.8	-0.0000139
3349.9	-0.0000298
3348.0	-0.0000364
3346.1	-0.0000362
3344.1	-0.0000303
3342.2	-0.0000183
3340.3	-0.0000143
3338.3	-0.0000250
3336.4	-0.0000364
3334.5	-0.0000391
3332.6	-0.0000361
3330.6	-0.0000305
3328.7	-0.0000210
3326.8	-0.0000118
3324.8	-0.0000128
3322.9	-0.0000216
3321.0	-0.0000285
3319.1	-0.0000256
3317.1	-0.0000136
3315.2	-0.0000035
3313.3	-0.0000011
3311.3	-0.0000041
3309.4	-0.0000059
3307.5	-0.0000035
3305.6	-0.0000022
3303.6	-0.0000011
3301.7	0.0000037
3299.8	0.0000012
3297.8	-0.0000160
3295.9	-0.0000334
3294.0	-0.0000281
3292.1	-0.0000021
3290.1	0.0000137
3288.2	0.0000097
3286.3	0.0000047
3284.3	0.0000015
3282.4	-0.0000074
3280.5	-0.0000147
3278.6	-0.0000126
3276.6	-0.0000051
3274.7	0.0000046
3272.8	0.0000128
3270.8	0.0000135
3268.9	0.0000111
3267.0	0.0000175
3265.1	0.0000317
3263.1	0.0000356
3261.2	0.0000288
3259.3	0.0000282
3257.3	0.0000317
3255.4	0.0000313
3253.5	0.0000297
3251.6	0.0000252
3249.6	0.0000171
3247.7	0.0000152
3245.8	0.0000219
3243.8	0.0000276
3241.9	0.0000304
3240.0	0.0000323
3238.1	0.0000339
3236.1	0.0000409
3234.2	0.0000456
3232.3	0.0000367
3230.3	0.0000249
3228.4	0.0000193
3226.5	0.0000170
3224.6	0.0000212
3222.6	0.0000269
3220.7	0.0000251
3218.8	0.0000242
3216.8	0.0000296
3214.9	0.0000294
3213.0	0.0000198
3211.1	0.0000151
3209.1	0.0000197
3207.2	0.0000232
3205.3	0.0000230
3203.3	0.0000244
3201.4	0.0000234
3199.5	0.0000167
3197.6	0.0000129
3195.6	0.0000152
3193.7	0.0000129
3191.8	0.0000080
3189.8	0.0000112
3187.9	0.0000170
3186.0	0.0000147
3184.1	0.0000082
3182.1	0.0000090
3180.2	0.0000156
3178.3	0.0000167
3176.3	0.0000135
3174.4	0.0000120
3172.5	0.0000107
3170.6	0.0000096
3168.6	0.0000084
3166.7	0.0000064
3164.8	0.0000032
3162.8	-0.0000020
3160.9	-0.0000052
3159.0	-0.0000029
3157.1	0.0000031
3155.1	0.0000059
3153.2	0.0000026
3151.3	-0.0000001
3149.3	-0.0000014
3147.4	-0.0000058
3145.5	-0.0000084
3143.6	-0.0000073
3141.6	-0.0000061
3139.7	-0.0000053
3137.8	-0.0000071
3135.8	-0.0000101
3133.9	-0.0000123
3132.0	-0.0000180
3130.1	-0.0000235
3128.1	-0.0000210
3126.2	-0.0000169
3124.3	-0.0000186
3122.3	-0.0000195
3120.4	-0.0000139
3118.5	-0.0000093
3116.6	-0.0000119
3114.6	-0.0000187
3112.7	-0.0000247
3110.8	-0.0000276
3108.8	-0.0000264
3106.9	-0.0000260
3105.0	-0.0000311
3103.1	-0.0000340
3101.1	-0.0000319
3099.2	-0.0000343
3097.3	-0.0000449
3095.3	-0.0000562
3093.4	-0.0000596
3091.5	-0.0000523
3089.6	-0.0000410
3087.6	-0.0000382
3085.7	-0.0000430
3083.8	-0.0000453
3081.8	-0.0000471
3079.9	-0.0000526
3078.0	-0.0000587
3076.1	-0.0000583
3074.1	-0.0000500
3072.2	-0.0000407
3070.3	-0.0000362
3068.3	-0.0000400
3066.4	-0.0000446
3064.5	-0.0000406
3062.6	-0.0000330
3060.6	-0.0000289
3058.7	-0.0000299
3056.8	-0.0000320
3054.8	-0.0000330
3052.9	-0.0000367
3051.0	-0.0000422
3049.1	-0.0000407
3047.1	-0.0000336
3045.2	-0.0000339
3043.3	-0.0000445
3041.3	-0.0000585
3039.4	-0.0000675
3037.5	-0.0000652
3035.6	-0.0000551
3033.6	-0.0000452
3031.7	-0.0000391
3029.8	-0.0000393
3027.8	-0.0000436
3025.9	-0.0000470
3024.0	-0.0000488
3022.1	-0.0000526
3020.1	-0.0000628
3018.2	-0.0000765
3016.3	-0.0000795
3014.3	-0.0000632
3012.4	-0.0000374
3010.5	-0.0000231
3008.6	-0.0000302
3006.6	-0.0000417
3004.7	-0.0000390
3002.8	-0.0000331
3000.8	-0.0000387
2998.9	-0.0000459
2997.0	-0.0000444
2995.1	-0.0000393
2993.1	-0.0000388
2991.2	-0.0000442
2989.3	-0.0000496
2987.3	-0.0000513
2985.4	-0.0000494
2983.5	-0.0000450
2981.6	-0.0000409
2979.6	-0.0000370
2977.7	-0.0000329
2975.8	-0.0000307
2973.8	-0.0000300
2971.9	-0.0000320
2970.0	-0.0000377
2968.1	-0.0000412
2966.1	-0.0000393
2964.2	-0.0000337
2962.3	-0.0000286
2960.3	-0.0000287
2958.4	-0.0000297
2956.5	-0.0000251
2954.6	-0.0000196
2952.6	-0.0000217
2950.7	-0.0000296
2948.8	-0.0000359
2946.8	-0.0000380
2944.9	-0.0000327
2943.0	-0.0000214
2941.1	-0.0000206
2939.1	-0.0000349
2937.2	-0.0000449
2935.3	-0.0000437
2933.3	-0.0000424
2931.4	-0.0000417
2929.5	-0.0000374
2927.6	-0.0000317
2925.6	-0.0000293
2923.7	-0.0000311
2921.8	-0.0000298
2919.8	-0.0000223
2917.9	-0.0000147
2916.0	-0.0000138
2914.1	-0.0000221
2912.1	-0.0000324
2910.2	-0.0000346
2908.3	-0.0000283
2906.3	-0.0000240
2904.4	-0.0000265
2902.5	-0.0000275
2900.6	-0.0000269
2898.6	-0.0000323
2896.7	-0.0000391
2894.8	-0.0000383
2892.8	-0.0000342
2890.9	-0.0000336
2889.0	-0.0000342
2887.1	-0.0000360
2885.1	-0.0000407
2883.2	-0.0000435
2881.3	-0.0000423
2879.3	-0.0000403
2877.4	-0.0000362
2875.5	-0.0000288
2873.6	-0.0000228
2871.6	-0.0000191
2869.7	-0.0000157
2867.8	-0.0000168
2865.8	-0.0000210
2863.9	-0.0000196
2862.0	-0.0000157
2860.1	-0.0000169
2858.1	-0.0000188
2856.2	-0.0000187
2854.3	-0.0000187
2852.3	-0.0000147
2850.4	-0.0000108
2848.5	-0.0000125
2846.6	-0.0000148
2844.6	-0.0000151
2842.7	-0.0000171
2840.8	-0.0000204
2838.8	-0.0000221
2836.9	-0.0000221
2835.0	-0.0000255
2833.1	-0.0000327
2831.1	-0.0000374
2829.2	-0.0000378
2827.3	-0.0000358
2825.3	-0.0000322
2823.4	-0.0000303
2821.5	-0.0000297
2819.6	-0.0000272
2817.6	-0.0000267
2815.7	-0.0000285
2813.8	-0.0000267
2811.8	-0.0000230
2809.9	-0.0000214
2808.0	-0.0000205
2806.1	-0.0000207
2804.1	-0.0000253
2802.2	-0.0000295
2800.3	-0.0000250
2798.3	-0.0000176
2796.4	-0.0000192
2794.5	-0.0000232
2792.6	-0.0000186
2790.6	-0.0000105
2788.7	-0.0000068
2786.8	-0.0000078
2784.8	-0.0000107
2782.9	-0.0000121
2781.0	-0.0000113
2779.1	-0.0000102
2777.1	-0.0000064
2775.2	-0.0000016
2773.3	-0.0000067
2771.3	-0.0000185
2769.4	-0.0000216
2767.5	-0.0000156
2765.6	-0.0000099
2763.6	-0.0000083
2761.7	-0.0000109
2759.8	-0.0000132
2757.8	-0.0000117
2755.9	-0.0000116
2754.0	-0.0000120
2752.1	-0.0000044
2750.1	0.0000059
2748.2	0.0000086
2746.3	0.0000063
2744.3	0.0000020
2742.4	-0.0000056
2740.5	-0.0000135
2738.6	-0.0000162
2736.6	-0.0000118
2734.7	-0.0000072
2732.8	-0.0000085
2730.8	-0.0000124
2728.9	-0.0000126
2727.0	-0.0000089
2725.1	-0.0000045
2723.1	-0.0000012
2721.2	-0.0000006
2719.3	-0.0000014
2717.3	-0.0000006
2715.4	0.0000000
2713.5	-0.0000009
2711.6	-0.0000013
2709.6	-0.0000017
2707.7	-0.0000058
2705.8	-0.0000100
2703.8	-0.0000084
2701.9	-0.0000047
2700.0	-0.0000043
2698.1	-0.0000058
2696.1	-0.0000090
2694.2	-0.0000154
2692.3	-0.0000155
2690.3	-0.0000059
2688.4	-0.0000019
2686.5	-0.0000080
2684.6	-0.0000093
2682.6	-0.0000018
2680.7	0.0000028
2678.8	0.0000015
2676.8	0.0000012
2674.9	0.0000029
2673.0	0.0000040
2671.1	0.0000051
2669.1	0.0000061
2667.2	0.0000047
2665.3	0.0000020
2663.3	-0.0000015
2661.4	-0.0000063
2659.5	-0.0000072
2657.6	-0.0000073
2655.6	-0.0000104
2653.7	-0.0000081
2651.8	0.0000030
2649.8	0.0000127
2647.9	0.0000119
2646.0	0.0000056
2644.1	0.0000066
2642.1	0.0000151
2640.2	0.0000191
2638.3	0.0000140
2636.3	0.0000048
2634.4	-0.0000019
2632.5	-0.0000021
2630.6	0.0000006
2628.6	0.0000004
2626.7	0.0000006
2624.8	0.0000031
2622.8	0.0000068
2620.9	0.0000113
2619.0	0.0000141
2617.1	0.0000124
2615.1	0.0000084
2613.2	0.0000049
2611.3	0.0000012
2609.3	0.0000002
2607.4	0.0000043
2605.5	0.0000093
2603.6	0.0000107
2601.6	0.0000062
2599.7	-0.0000006
2597.8	0.0000006
2595.8	0.0000102
2593.9	0.0000149
2592.0	0.0000101
2590.1	0.0000062
2588.1	0.0000056
2586.2	0.0000051
2584.3	0.0000067
2582.3	0.0000097
2580.4	0.0000128
2578.5	0.0000153
2576.6	0.0000133
2574.6	0.0000106
2572.7	0.0000119
2570.8	0.0000131
2568.8	0.0000103
2566.9	0.0000065
2565.0	0.0000084
2563.1	0.0000186
2561.1	0.0000304
2559.2	0.0000348
2557.3	0.0000313
2555.3	0.0000264
2553.4	0.0000224
2551.5	0.0000167
2549.6	0.0000154
2547.6	0.0000217
2545.7	0.0000265
2543.8	0.0000245
2541.8	0.0000204
2539.9	0.0000196
2538.0	0.0000205
2536.1	0.0000209
2534.1	0.0000224
2532.2	0.0000244
2530.3	0.0000263
2528.3	0.0000279
2526.4	0.0000294
2524.5	0.0000318
2522.6	0.0000333
2520.6	0.0000326
2518.7	0.0000341
2516.8	0.0000377
2514.8	0.0000366
2512.9	0.0000312
2511.0	0.0000288
2509.1	0.0000313
2507.1	0.0000373
2505.2	0.0000421
2503.3	0.0000383
2501.3	0.0000302
2499.4	0.0000263
2497.5	0.0000249
2495.6	0.0000250
2493.6	0.0000273
2491.7	0.0000291
2489.8	0.0000281
2487.8	0.0000229
2485.9	0.0000167
2484.0	0.0000144
2482.1	0.0000131
2480.1	0.0000109
2478.2	0.0000113
2476.3	0.0000143
2474.3	0.0000169
2472.4	0.0000152
2470.5	0.0000092
2468.6	0.0000068
2466.6	0.0000143
2464.7	0.0000240
2462.8	0.0000243
2460.8	0.0000178
2458.9	0.0000119
2457.0	0.0000089
2455.1	0.0000055
2453.1	-0.0000005
2451.2	-0.0000039
2449.3	0.0000001
2447.3	0.0000062
2445.4	0.0000089
2443.5	0.0000116
2441.6	0.0000156
2439.6	0.0000182
2437.7	0.0000190
2435.8	0.0000171
2433.8	0.0000135
2431.9	0.0000139
2430.0	0.0000173
2428.1	0.0000150
2426.1	0.0000089
2424.2	0.0000059
2422.3	0.0000043
2420.3	0.0000041
2418.4	0.0000073
2416.5	0.0000080
2414.6	0.0000044
2412.6	0.0000033
2410.7	0.0000051
2408.8	0.0000067
2406.8	0.0000092
2404.9	0.0000078
2403.0	0.0000004
2401.1	-0.0000036
2399.1	0.0000004
2397.2	0.0000055
2395.3	0.0000083
2393.3	0.0000093
2391.4	0.0000077
2389.5	0.0000068
2387.6	0.0000107
2385.6	0.0000151
2383.7	0.0000157
2381.8	0.0000124
2379.8	0.0000093
2377.9	0.0000086
2376.0	0.0000058
2374.1	0.0000021
2372.1	0.0000026
2370.2	0.0000043
2368.3	0.0000032
2366.3	-0.0000003
2364.4	-0.0000049
2362.5	-0.0000061
2360.6	-0.0000015
2358.6	0.0000021
2356.7	0.0000015
2354.8	0.0000013
2352.8	0.0000008
2350.9	-0.0000012
2349.0	-0.0000013
2347.1	-0.0000000
2345.1	0.0000021
2343.2	0.0000058
2341.3	0.0000082
2339.3	0.0000099
2337.4	0.0000113
2335.5	0.0000084
2333.6	0.0000034
2331.6	0.0000018
2329.7	0.0000043
2327.8	0.0000082
2325.8	0.0000077
2323.9	0.0000041
2322.0	0.0000062
2320.1	0.0000152
2318.1	0.0000227
2316.2	0.0000244
2314.3	0.0000229
2312.3	0.0000209
2310.4	0.0000218
2308.5	0.0000249
2306.6	0.0000235
2304.6	0.0000149
2302.7	0.0000076
2300.8	0.0000099
2298.8	0.0000157
2296.9	0.0000145
2295.0	0.0000065
2293.1	0.0000007
2291.1	0.0000022
2289.2	0.0000060
2287.3	0.0000074
2285.3	0.0000074
2283.4	0.0000107
2281.5	0.0000151
2279.6	0.0000154
2277.6	0.0000120
2275.7	0.0000074
2273.8	0.0000021
2271.8	0.0000023
2269.9	0.0000106
2268.0	0.0000142
2266.1	0.0000056
2264.1	-0.0000059
2262.2	-0.0000079
2260.3	-0.0000018
2258.3	0.0000056
2256.4	0.0000140
2254.5	0.0000184
2252.6	0.0000161
2250.6	0.0000132
2248.7	0.0000109
2246.8	0.0000066
2244.8	0.0000009
2242.9	-0.0000045
2241.0	-0.0000094
2239.1	-0.0000145
2237.1	-0.0000188
2235.2	-0.0000191
2233.3	-0.0000174
2231.3	-0.0000171
2229.4	-0.0000157
2227.5	-0.0000118
2225.6	-0.0000075
2223.6	-0.0000039
2221.7	-0.0000012
2219.8	-0.0000028
2217.8	-0.0000092
2215.9	-0.0000124
2214.0	-0.0000125
2212.1	-0.0000113
2210.1	-0.0000054
2208.2	0.0000033
2206.3	0.0000085
2204.3	0.0000101
2202.4	0.0000108
2200.5	0.0000090
2198.6	0.0000078
2196.6	0.0000074
2194.7	0.0000056
2192.8	0.0000047
2190.8	0.0000103
2188.9	0.0000218
2187.0	0.0000280
2185.1	0.0000277
2183.1	0.0000266
2181.2	0.0000262
2179.3	0.0000263
2177.3	0.0000295
2175.4	0.0000325
2173.5	0.0000308
2171.6	0.0000315
2169.6	0.0000365
2167.7	0.0000445
2165.8	0.0000525
2163.8	0.0000585
2161.9	0.0000637
2160.0	0.0000670
2158.1	0.0000708
2156.1	0.0000710
2154.2	0.0000704
2152.3	0.0000727
2150.3	0.0000778
2148.4	0.0000847
2146.5	0.0000885
2144.6	0.0000970
2142.6	0.0001106
2140.7	0.0001244
2138.8	0.0001347
2136.8	0.0001433
2134.9	0.0001544
2133.0	0.0001692
2131.1	0.0001917
2129.1	0.0002135
2127.2	0.0002344
2125.3	0.0002568
2123.3	0.0002847
2121.4	0.0003248
2119.5	0.0003779
2117.6	0.0004488
2115.6	0.0005373
2113.7	0.0006544
2111.8	0.0008141
2109.8	0.0010546
2107.9	0.0014551
2106.0	0.0022147
2104.1	0.0039512
2102.1	0.0080318
2100.2	0.0145562
2098.3	0.0190168
2096.3	0.0167889
2094.4	0.0105021
2092.5	0.0053157
2090.6	0.0022590
2088.6	0.0004470
2086.7	-0.0003226
2084.8	-0.0002729
2082.8	0.0000188
2080.9	0.0001903
2079.0	0.0002277
2077.1	0.0002025
2075.1	0.0001712
2073.2	0.0001534
2071.3	0.0001494
2069.3	0.0001528
2067.4	0.0001578
2065.5	0.0001619
2063.6	0.0001602
2061.6	0.0001587
2059.7	0.0001569
2057.8	0.0001554
2055.8	0.0001558
2053.9	0.0001583
2052.0	0.0001608
2050.1	0.0001553
2048.1	0.0001434
2046.2	0.0001300
2044.3	0.0001198
2042.3	0.0001071
2040.4	0.0000860
2038.5	0.0000602
2036.6	0.0000376
2034.6	0.0000262
2032.7	0.0000216
2030.8	0.0000170
2028.8	0.0000056
2026.9	-0.0000108
2025.0	-0.0000182
2023.1	-0.0000139
2021.1	-0.0000105
2019.2	-0.0000157
2017.3	-0.0000209
2015.3	-0.0000243
2013.4	-0.0000262
2011.5	-0.0000224
2009.6	-0.0000154
2007.6	-0.0000110
2005.7	-0.0000113
2003.8	-0.0000119
2001.8	-0.0000116
1999.9	-0.0000093
1998.0	-0.0000074
1996.1	-0.0000093
1994.1	-0.0000100
1992.2	-0.0000093
1990.3	-0.0000105
1988.3	-0.0000154
1986.4	-0.0000241
1984.5	-0.0000324
1982.6	-0.0000350
1980.6	-0.0000342
1978.7	-0.0000357
1976.8	-0.0000373
1974.8	-0.0000375
1972.9	-0.0000378
1971.0	-0.0000354
1969.1	-0.0000278
1967.1	-0.0000222
1965.2	-0.0000203
1963.3	-0.0000167
1961.4	-0.0000141
1959.4	-0.0000141
1957.5	-0.0000136
1955.6	-0.0000115
1953.6	-0.0000090
1951.7	-0.0000067
1949.8	-0.0000016
1947.9	0.0000080
1945.9	0.0000268
1944.0	0.0000608
1942.1	0.0001050
1940.1	0.0001453
1938.2	0.0001665
1936.3	0.0001621
1934.4	0.0001428
1932.4	0.0001267
1930.5	0.0001142
1928.6	0.0001007
1926.6	0.0000946
1924.7	0.0000994
1922.8	0.0001040
1920.9	0.0001061
1918.9	0.0001093
1917.0	0.0001057
1915.1	0.0000973
1913.1	0.0000965
1911.2	0.0000995
1909.3	0.0000988
1907.4	0.0000989
1905.4	0.0001124
1903.5	0.0001398
1901.6	0.0001674
1899.6	0.0001907
1897.7	0.0002182
1895.8	0.0002507
1893.9	0.0002800
1891.9	0.0003061
1890.0	0.0003292
1888.1	0.0003417
1886.1	0.0003431
1884.2	0.0003385
1882.3	0.0003276
1880.4	0.0003076
1878.4	0.0002798
1876.5	0.0002512
1874.6	0.0002351
1872.6	0.0002486
1870.7	0.0002946
1868.8	0.0003422
1866.9	0.0003627
1864.9	0.0003662
1863.0	0.0003657
1861.1	0.0003547
1859.1	0.0003310
1857.2	0.0003059
1855.3	0.0002850
1853.4	0.0002594
1851.4	0.0002331
1849.5	0.0002248
1847.6	0.0002466
1845.6	0.0002840
1843.7	0.0002819
1841.8	0.0002174
1839.9	0.0001423
1837.9	0.0000920
1836.0	0.0000588
1834.1	0.0000442
1832.1	0.0000538
1830.2	0.0000660
1828.3	0.0000599
1826.4	0.0000464
1824.4	0.0000317
1822.5	0.0000126
1820.6	0.0000012
1818.6	0.0000018
1816.7	0.0000037
1814.8	0.0000030
1812.9	0.0000059
1810.9	0.0000094
1809.0	0.0000020
1807.1	-0.0000102
1805.1	-0.0000105
1803.2	0.0000029
1801.3	0.0000148
1799.4	0.0000156
1797.4	0.0000124
1795.5	0.0000235
1793.6	0.0000461
1791.6	0.0000464
1789.7	0.0000181
1787.8	-0.0000024
1785.9	-0.0000020
1783.9	-0.0000003
1782.0	-0.0000054
1780.1	-0.0000122
1778.1	-0.0000151
1776.2	0.0000089
1774.3	0.0000683
1772.4	0.0001049
1770.4	0.0000793
1768.5	0.0000362
1766.6	0.0000100
1764.6	0.0000038
1762.7	0.0000120
1760.8	0.0000129
1758.9	0.0000083
1756.9	0.0000053
1755.0	0.0000106
1753.1	0.0000433
1751.1	0.0000735
1749.2	0.0000576
1747.3	0.0000210
1745.4	0.0000053
1743.4	0.0000141
1741.5	0.0000331
1739.6	0.0000432
1737.6	0.0000690
1735.7	0.0001360
1733.8	0.0001598
1731.9	0.0000912
1729.9	0.0000196
1728.0	-0.0000060
1726.1	-0.0000101
1724.1	-0.0000089
1722.2	0.0000058
1720.3	0.0000692
1718.4	0.0001552
1716.4	0.0001623
1714.5	0.0000819
1712.6	0.0000076
1710.6	-0.0000178
1708.7	-0.0000088
1706.8	0.0000171
1704.9	0.0000470
1702.9	0.0001034
1701.0	0.0001708
1699.1	0.0001854
1697.1	0.0001660
1695.2	0.0001234
1693.3	0.0000428
1691.4	-0.0000137
1689.4	-0.0000059
1687.5	0.0000774
1685.6	0.0001880
1683.6	0.0001840
1681.7	0.0000690
1679.8	-0.0000124
1677.9	-0.0000095
1675.9	0.0000216
1674.0	0.0000284
1672.1	0.0000325
1670.1	0.0000473
1668.2	0.0000306
1666.3	-0.0000019
1664.4	-0.0000032
1662.4	0.0000031
1660.5	-0.0000101
1658.6	-0.0000116
1656.6	0.0000753
1654.7	0.0002519
1652.8	0.0003236
1650.9	0.0002084
1648.9	0.0001138
1647.0	0.0001136
1645.1	0.0000838
1643.1	0.0000135
1641.2	-0.0000220
1639.3	0.0000053
1637.4	0.0000785
1635.4	0.0001108
1633.5	0.0000500
1631.6	-0.0000197
1629.6	-0.0000344
1627.7	-0.0000218
1625.8	-0.0000040
1623.9	0.0000080
1621.9	0.0000027
1620.0	0.0000230
1618.1	0.0000861
1616.1	0.0000977
1614.2	0.0000311
1612.3	-0.0000192
1610.4	-0.0000245
1608.4	-0.0000231
1606.5	-0.0000266
1604.6	-0.0000282
1602.6	-0.0000240
1600.7	-0.0000189
1598.8	-0.0000191
1596.9	-0.0000232
1594.9	-0.0000255
1593.0	-0.0000256
1591.1	-0.0000262
1589.1	-0.0000297
1587.2	-0.0000387
1585.3	-0.0000488
1583.4	-0.0000509
1581.4	-0.0000397
1579.5	0.0000113
1577.6	0.0001018
1575.6	0.0001264
1573.7	0.0000610
1571.8	0.0000295
1569.9	0.0000439
1567.9	0.0000294
1566.0	0.0000020
1564.1	0.0000139
1562.1	0.0001108
1560.2	0.0002595
1558.3	0.0003030
1556.4	0.0002114
1554.4	0.0001118
1552.5	0.0000508
1550.6	0.0000163
1548.6	0.0000096
1546.7	0.0000345
1544.8	0.0000962
1542.9	0.0001934
1540.9	0.0002753
1539.0	0.0002421
1537.1	0.0001280
1535.1	0.0000730
1533.2	0.0000681
1531.3	0.0000411
1529.4	0.0000217
1527.4	0.0000364
1525.5	0.0000702
1523.6	0.0001264
1521.6	0.0001651
1519.7	0.0001351
1517.8	0.0000788
1515.9	0.0000432
1513.9	0.0000287
1512.0	0.0000395
1510.1	0.0001018
1508.1	0.0002154
1506.2	0.0002562
1504.3	0.0001497
1502.4	0.0000347
1500.4	0.0000195
1498.5	0.0000569
1496.6	0.0000686
1494.6	0.0000384
1492.7	0.0000211
1490.8	0.0000385
1488.9	0.0000427
1486.9	0.0000152
1485.0	-0.0000119
1483.1	-0.0000194
1481.1	-0.0000169
1479.2	-0.0000081
1477.3	0.0000167
1475.4	0.0000585
1473.4	0.0000915
1471.5	0.0000738
1469.6	0.0000241
1467.6	0.0000096
1465.7	0.0000267
1463.8	0.0000210
1461.9	0.0000131
1459.9	0.0000758
1458.0	0.0001722
1456.1	0.0001700
1454.1	0.0000733
1452.2	0.0000038
1450.3	-0.0000062
1448.4	0.0000001
1446.4	-0.0000076
1444.5	-0.0000248
1442.6	-0.0000300
1440.6	-0.0000071
1438.7	0.0000460
1436.8	0.0000782
1434.9	0.0000454
1432.9	0.0000013
1431.0	-0.0000041
1429.1	0.0000024
1427.1	-0.0000019
1425.2	-0.0000097
1423.3	-0.0000018
1421.4	0.0000431
1419.4	0.0000847
1417.5	0.0000621
1415.6	0.0000097
1413.6	-0.0000173
1411.7	-0.0000221
1409.8	-0.0000219
1407.9	-0.0000176
1405.9	-0.0000059
1404.0	0.0000035
1402.1	0.0000124
1400.1	0.0000297
1398.2	0.0000422
1396.3	0.0000445
1394.4	0.0000366
1392.4	0.0000150
1390.5	0.0000027
1388.6	0.0000065
1386.6	-0.0000005
1384.7	-0.0000184
1382.8	-0.0000250
1380.9	-0.0000211
1378.9	-0.0000193
1377.0	-0.0000188
1375.1	-0.0000151
1373.1	-0.0000146
1371.2	-0.0000184
1369.3	-0.0000185
1367.4	-0.0000182
1365.4	-0.0000159
1363.5	-0.0000062
1361.6	-0.0000022
1359.6	-0.0000085
1357.7	-0.0000114
1355.8	-0.0000136
1353.9	-0.0000235
1351.9	-0.0000285
1350.0	-0.0000246
1348.1	-0.0000281
1346.1	-0.0000372
1344.2	-0.0000321
1342.3	-0.0000085
1340.4	0.0000130
1338.4	0.0000140
1336.5	0.0000020
1334.6	-0.0000087
1332.6	-0.0000143
1330.7	-0.0000171
1328.8	-0.0000206
1326.9	-0.0000256
1324.9	-0.0000268
1323.0	-0.0000225
1321.1	-0.0000190
1319.1	-0.0000209
1317.2	-0.0000280
1315.3	-0.0000343
1313.4	-0.0000329
1311.4	-0.0000255
1309.5	-0.0000197
1307.6	-0.0000242
1305.6	-0.0000359
1303.7	-0.0000439
1301.8	-0.0000447
1299.9	-0.0000415
1297.9	-0.0000369
1296.0	-0.0000306
1294.1	-0.0000230
1292.1	-0.0000200
1290.2	-0.0000220
1288.3	-0.0000216
1286.4	-0.0000197
1284.4	-0.0000233
1282.5	-0.0000279
1280.6	-0.0000282
1278.6	-0.0000262
1276.7	-0.0000249
1274.8	-0.0000272
1272.9	-0.0000303
1270.9	-0.0000277
1269.0	-0.0000210
1267.1	-0.0000163
1265.1	-0.0000147
1263.2	-0.0000103
1261.3	-0.0000005
1259.4	0.0000062
1257.4	0.0000017
1255.5	-0.0000078
1253.6	-0.0000120
1251.6	-0.0000105
1249.7	-0.0000089
1247.8	-0.0000107
1245.9	-0.0000141
1243.9	-0.0000157
1242.0	-0.0000176
1240.1	-0.0000215
1238.1	-0.0000199
1236.2	-0.0000116
1234.3	-0.0000087
1232.4	-0.0000154
1230.4	-0.0000208
1228.5	-0.0000156
1226.6	-0.0000042
1224.6	0.0000020
1222.7	-0.0000010
1220.8	-0.0000069
1218.9	-0.0000118
1216.9	-0.0000177
1215.0	-0.0000223
1213.1	-0.0000203
1211.1	-0.0000095
1209.2	-0.0000015
1207.3	-0.0000046
1205.4	-0.0000091
1203.4	-0.0000101
1201.5	-0.0000118
1199.6	-0.0000129
1197.6	-0.0000123
1195.7	-0.0000124
1193.8	-0.0000169
1191.9	-0.0000244
1189.9	-0.0000262
1188.0	-0.0000194
1186.1	-0.0000143
1184.1	-0.0000177
1182.2	-0.0000230
1180.3	-0.0000189
1178.4	-0.0000119
1176.4	-0.0000147
1174.5	-0.0000209
1172.6	-0.0000226
1170.6	-0.0000245
1168.7	-0.0000320
1166.8	-0.0000422
1164.9	-0.0000475
1162.9	-0.0000422
1161.0	-0.0000294
1159.1	-0.0000190
1157.1	-0.0000153
1155.2	-0.0000134
1153.3	-0.0000124
1151.4	-0.0000155
1149.4	-0.0000217
1147.5	-0.0000297
1145.6	-0.0000359
1143.6	-0.0000355
1141.7	-0.0000278
1139.8	-0.0000204
1137.9	-0.0000185
1135.9	-0.0000144
1134.0	-0.0000068
1132.1	-0.0000055
1130.1	-0.0000120
1128.2	-0.0000205
1126.3	-0.0000224
1124.4	-0.0000165
1122.4	-0.0000141
1120.5	-0.0000168
1118.6	-0.0000148
1116.6	-0.0000079
1114.7	-0.0000005
1112.8	0.0000023
1110.9	-0.0000059
1108.9	-0.0000183
1107.0	-0.0000224
1105.1	-0.0000205
1103.1	-0.0000190
1101.2	-0.0000203
1099.3	-0.0000246
1097.4	-0.0000264
1095.4	-0.0000237
1093.5	-0.0000210
1091.6	-0.0000205
1089.6	-0.0000235
1087.7	-0.0000280
1085.8	-0.0000278
1083.9	-0.0000227
1081.9	-0.0000219
1080.0	-0.0000310
1078.1	-0.0000405
1076.1	-0.0000380
1074.2	-0.0000249
1072.3	-0.0000084
1070.4	0.0000036
1068.4	0.0000013
1066.5	-0.0000158
1064.6	-0.0000310
1062.6	-0.0000308
1060.7	-0.0000231
1058.8	-0.0000204
1056.9	-0.0000256
1054.9	-0.0000337
1053.0	-0.0000388
1051.1	-0.0000417
1049.1	-0.0000410
1047.2	-0.0000356
1045.3	-0.0000341
1043.4	-0.0000399
1041.4	-0.0000451
1039.5	-0.0000464
1037.6	-0.0000498
1035.6	-0.0000552
1033.7	-0.0000532
1031.8	-0.0000445
1029.9	-0.0000383
1027.9	-0.0000358
1026.0	-0.0000331
1024.1	-0.0000325
1022.1	-0.0000321
1020.2	-0.0000264
1018.3	-0.0000194
1016.4	-0.0000175
1014.4	-0.0000203
1012.5	-0.0000209
1010.6	-0.0000185
1008.6	-0.0000178
1006.7	-0.0000169
1004.8	-0.0000155
1002.9	-0.0000221
1000.9	-0.0000351
999.0	-0.0000408
997.1	-0.0000376
995.1	-0.0000354
993.2	-0.0000352
991.3	-0.0000355
989.4	-0.0000373
987.4	-0.0000393
985.5	-0.0000410
983.6	-0.0000409
981.6	-0.0000387
979.7	-0.0000372
977.8	-0.0000375
975.9	-0.0000422
973.9	-0.0000508
972.0	-0.0000566
970.1	-0.0000558
968.1	-0.0000492
966.2	-0.0000442
964.3	-0.0000469
962.4	-0.0000495
960.4	-0.0000514
958.5	-0.0000622
956.6	-0.0000724
954.6	-0.0000719
952.7	-0.0000683
950.8	-0.0000664
948.9	-0.0000711
946.9	-0.0000801
945.0	-0.0000783
943.1	-0.0000672
941.1	-0.0000582
939.2	-0.0000468
937.3	-0.0000367
935.4	-0.0000457
933.4	-0.0000644
931.5	-0.0000762
929.6	-0.0000904
927.6	-0.0001051
925.7	-0.0001015
923.8	-0.0000844
921.9	-0.0000752
919.9	-0.0000807
918.0	-0.0000939
916.1	-0.0001067
914.1	-0.0001117
912.2	-0.0000990
910.3	-0.0000784
908.4	-0.0000786
906.4	-0.0000937
904.5	-0.0000935
902.6	-0.0000817
900.6	-0.0000735
898.7	-0.0000701
896.8	-0.0000718
894.9	-0.0000715
892.9	-0.0000634
891.0	-0.0000569
889.1	-0.0000542
887.1	-0.0000547
885.2	-0.0000668
883.3	-0.0000749
881.4	-0.0000643
879.4	-0.0000574
877.5	-0.0000563
875.6	-0.0000415
873.6	-0.0000262
871.7	-0.0000274
869.8	-0.0000365
867.9	-0.0000509
865.9	-0.0000745
864.0	-0.0000882
862.1	-0.0000767
860.1	-0.0000631
858.2	-0.0000707
856.3	-0.0000757
854.4	-0.0000433
852.4	0.0000030
850.5	0.0000148
848.6	-0.0000095
846.6	-0.0000321
844.7	-0.0000223
842.8	-0.0000015
840.9	-0.0000131
838.9	-0.0000478
837.0	-0.0000567
835.1	-0.0000383
833.1	-0.0000340
831.2	-0.0000431
829.3	-0.0000369
827.4	-0.0000272
825.4	-0.0000263
823.5	-0.0000109
821.6	0.0000120
819.6	0.0000052
817.7	-0.0000274
815.8	-0.0000597
813.9	-0.0000698
811.9	-0.0000473
810.0	-0.0000107
808.1	0.0000232
806.1	0.0000390
804.2	0.0000299
802.3	0.0000055
800.4	-0.0000289
798.4	-0.0000522
796.5	-0.0000585
794.6	-0.0000559
792.6	-0.0000341
790.7	-0.0000258
788.8	-0.0000596
786.9	-0.0000887
784.9	-0.0000670
783.0	-0.0000174
781.1	-0.0000114
779.1	-0.0000550
777.2	-0.0000647
775.3	-0.0000294
773.4	-0.0000231
771.4	-0.0000419
769.5	-0.0000189
767.6	0.0000310
765.6	0.0000346
763.7	0.0000036
761.8	-0.0000038
759.9	-0.0000020
757.9	-0.0000045
756.0	-0.0000174
754.1	-0.0000972
752.1	-0.0001919
750.2	-0.0002060
748.3	-0.0001866
746.4	-0.0001677
744.4	-0.0001458
742.5	-0.0001793
740.6	-0.0002646
738.6	-0.0003201
736.7	-0.0003427
734.8	-0.0003928
732.9	-0.0004461
730.9	-0.0004461
729.0	-0.0004134
727.1	-0.0004206
725.1	-0.0004995
723.2	-0.0006108
721.3	-0.0006861
719.4	-0.0007316
717.4	-0.0008575
715.5	-0.0010067
713.6	-0.0010151
711.6	-0.0009827
709.7	-0.0010450
707.8	-0.0011392
705.9	-0.0012059
703.9	-0.0012483
702.0	-0.0012273
700.1	-0.0011869
698.1	-0.0012792
696.2	-0.0014918
694.3	-0.0015864
692.4	-0.0014826
690.4	-0.0013708
688.5	-0.0012635
686.6	-0.0011161
684.6	-0.0010923
682.7	-0.0012002
680.8	-0.0013005
678.9	-0.0012606
676.9	-0.0010784
675.0	-0.0009919
673.1	-0.0011023
671.1	-0.0012188
669.2	-0.0011596
667.3	-0.0009794
665.4	-0.0009026
663.4	-0.0009333
661.5	-0.0010793
659.6	-0.0014553
657.6	-0.0016906
655.7	-0.0013879
653.8	-0.0008515
651.9	-0.0006127
649.9	-0.0008222
648.0	-0.0012155
646.1	-0.0014610
644.1	-0.0014328
642.2	-0.0013026
640.3	-0.0013005
638.4	-0.0013692
636.4	-0.0013435
634.5	-0.0012191
632.6	-0.0011573
630.6	-0.0012312
628.7	-0.0012504
626.8	-0.0011656
624.9	-0.0011095
622.9	-0.0010711
621.0	-0.0010715
619.1	-0.0011756
617.1	-0.0012646
615.2	-0.0012870
613.3	-0.0012923
611.4	-0.0012346
609.4	-0.0011240
607.5	-0.0010612
605.6	-0.0011120
603.6	-0.0012416
601.7	-0.0013073
599.8	-0.0012964
