3997.9	-0.0001005
3996.0	-0.0001009
3994.1	-0.0001006
3992.1	-0.0000990
3990.2	-0.0000958
3988.3	-0.0000939
3986.3	-0.0000944
3984.4	-0.0000967
3982.5	-0.0001009
3980.6	-0.0001076
3978.6	-0.0001073
3976.7	-0.0000943
3974.8	-0.0000850
3972.8	-0.0000895
3970.9	-0.0000917
3969.0	-0.0000823
3967.1	-0.0000759
3965.1	-0.0000749
3963.2	-0.0000730
3961.3	-0.0000773
3959.3	-0.0000881
3957.4	-0.0000966
3955.5	-0.0000977
3953.6	-0.0000840
3951.6	-0.0000593
3949.7	-0.0000461
3947.8	-0.0000555
3945.8	-0.0000704
3943.9	-0.0000770
3942.0	-0.0000825
3940.1	-0.0000872
3938.1	-0.0000841
3936.2	-0.0000700
3934.3	-0.0000425
3932.3	-0.0000253
3930.4	-0.0000464
3928.5	-0.0000803
3926.6	-0.0000875
3924.6	-0.0000744
3922.7	-0.0000578
3920.8	-0.0000321
3918.8	-0.0000187
3916.9	-0.0000484
3915.0	-0.0000958
3913.1	-0.0001199
3911.1	-0.0001252
3909.2	-0.0001148
3907.3	-0.0000530
3905.3	0.0000478
3903.4	0.0001097
3901.5	0.0001015
3899.6	0.0000441
3897.6	-0.0000382
3895.7	-0.0000852
3893.8	-0.0000472
3891.8	0.0000042
3889.9	0.0000024
3888.0	0.0000217
3886.1	0.0000675
3884.1	0.0000494
3882.2	0.0000124
3880.3	-0.0000045
3878.3	-0.0000409
3876.4	-0.0000553
3874.5	-0.0000167
3872.6	0.0000727
3870.6	0.0001665
3868.7	0.0001661
3866.8	0.0001241
3864.8	0.0001066
3862.9	0.0000497
3861.0	-0.0000405
3859.1	-0.0000475
3857.1	0.0001796
3855.2	0.0005828
3853.3	0.0007360
3851.3	0.0004425
3849.4	0.0000664
3847.5	-0.0000945
3845.6	-0.0000892
3843.6	-0.0000342
3841.7	0.0000579
3839.8	0.0001979
3837.8	0.0002735
3835.9	0.0002014
3834.0	0.0000867
3832.1	0.0000099
3830.1	-0.0000470
3828.2	-0.0000771
3826.3	-0.0000710
3824.3	-0.0000129
3822.4	0.0000873
3820.5	0.0001312
3818.6	0.0001377
3816.6	0.0001527
3814.7	0.0000666
3812.8	-0.0000754
3810.8	-0.0000871
3808.9	0.0000412
3807.0	0.0001311
3805.1	0.0001282
3803.1	0.0001728
3801.2	0.0002008
3799.3	0.0000978
3797.3	-0.0000098
3795.4	-0.0000720
3793.5	-0.0001256
3791.6	-0.0001477
3789.6	-0.0001496
3787.7	-0.0001467
3785.8	-0.0001330
3783.8	-0.0001190
3781.9	-0.0000980
3780.0	-0.0000774
3778.1	-0.0000931
3776.1	-0.0001266
3774.2	-0.0001273
3772.3	-0.0000838
3770.3	-0.0000377
3768.4	-0.0000329
3766.5	-0.0000534
3764.6	-0.0000780
3762.6	-0.0000765
3760.7	-0.0000255
3758.8	-0.0000012
3756.8	-0.0000196
3754.9	0.0000488
3753.0	0.0002523
3751.1	0.0004317
3749.1	0.0004449
3747.2	0.0004690
3745.3	0.0005727
3743.3	0.0004476
3741.4	0.0001473
3739.5	0.0000494
3737.6	0.0001493
3735.6	0.0002278
3733.7	0.0002036
3731.8	0.0000988
3729.8	-0.0000162
3727.9	-0.0000618
3726.0	-0.0000529
3724.1	-0.0000524
3722.1	-0.0000611
3720.2	-0.0000775
3718.3	-0.0000994
3716.3	-0.0000710
3714.4	0.0000565
3712.5	0.0001749
3710.6	0.0001237
3708.6	-0.0000279
3706.7	-0.0001246
3704.8	-0.0001237
3702.8	-0.0000769
3700.9	-0.0000739
3699.0	-0.0001187
3697.1	-0.0001513
3695.1	-0.0001289
3693.2	-0.0000268
3691.3	0.0001335
3689.3	0.0002247
3687.4	0.0001297
3685.5	-0.0000464
3683.6	-0.0001326
3681.6	-0.0001228
3679.7	-0.0000370
3677.8	0.0001586
3675.8	0.0003208
3673.9	0.0003046
3672.0	0.0002516
3670.1	0.0002002
3668.1	0.0000517
3666.2	-0.0000960
3664.3	-0.0001509
3662.3	-0.0001565
3660.4	-0.0001265
3658.5	-0.0000340
3656.6	0.0000399
3654.6	0.0000329
3652.7	0.0000965
3650.8	0.0002649
3648.8	0.0003061
3646.9	0.0001430
3645.0	-0.0000391
3643.1	-0.0001221
3641.1	-0.0001440
3639.2	-0.0001485
3637.3	-0.0001330
3635.3	-0.0000978
3633.4	-0.0000305
3631.5	0.0001157
3629.6	0.0002374
3627.6	0.0001509
3625.7	-0.0000413
3623.8	-0.0001210
3621.8	-0.0000717
3619.9	-0.0000033
3618.0	0.0000005
3616.1	-0.0000226
3614.1	-0.0000079
3612.2	0.0000280
3610.3	0.0000495
3608.3	0.0000219
3606.4	-0.0000572
3604.5	-0.0001229
3602.6	-0.0001355
3600.6	-0.0001213
3598.7	-0.0001055
3596.8	-0.0000915
3594.8	-0.0000892
3592.9	-0.0001055
3591.0	-0.0001034
3589.1	-0.0000593
3587.1	-0.0000387
3585.2	-0.0000817
3583.3	-0.0001299
3581.3	-0.0001431
3579.4	-0.0001392
3577.5	-0.0001370
3575.6	-0.0001407
3573.6	-0.0001461
3571.7	-0.0001303
3569.8	-0.0000718
3567.8	-0.0000137
3565.9	-0.0000206
3564.0	-0.0000747
3562.1	-0.0001184
3560.1	-0.0001344
3558.2	-0.0001342
3556.3	-0.0001342
3554.3	-0.0001357
3552.4	-0.0001344
3550.5	-0.0001321
3548.6	-0.0001209
3546.6	-0.0001125
3544.7	-0.0001250
3542.8	-0.0001445
3540.8	-0.0001512
3538.9	-0.0001417
3537.0	-0.0001298
3535.1	-0.0001301
3533.1	-0.0001353
3531.2	-0.0001326
3529.3	-0.0001220
3527.3	-0.0001130
3525.4	-0.0001138
3523.5	-0.0001254
3521.6	-0.0001421
3519.6	-0.0001539
3517.7	-0.0001572
3515.8	-0.0001589
3513.8	-0.0001597
3511.9	-0.0001495
3510.0	-0.0001309
3508.1	-0.0001201
3506.1	-0.0001207
3504.2	-0.0001250
3502.3	-0.0001327
3500.3	-0.0001467
3498.4	-0.0001549
3496.5	-0.0001469
3494.6	-0.0001339
3492.6	-0.0001294
3490.7	-0.0001322
3488.8	-0.0001337
3486.8	-0.0001311
3484.9	-0.0001283
3483.0	-0.0001231
3481.1	-0.0001178
3479.1	-0.0001199
3477.2	-0.0001253
3475.3	-0.0001286
3473.3	-0.0001243
3471.4	-0.0001126
3469.5	-0.0001072
3467.6	-0.0001140
3465.6	-0.0001191
3463.7	-0.0001143
3461.8	-0.0001094
3459.8	-0.0001099
3457.9	-0.0001083
3456.0	-0.0001042
3454.1	-0.0001072
3452.1	-0.0001158
3450.2	-0.0001191
3448.3	-0.0001161
3446.3	-0.0001099
3444.4	-0.0001008
3442.5	-0.0000918
3440.6	-0.0000912
3438.6	-0.0000967
3436.7	-0.0000988
3434.8	-0.0000996
3432.8	-0.0000995
3430.9	-0.0000971
3429.0	-0.0000997
3427.1	-0.0001049
3425.1	-0.0001032
3423.2	-0.0000919
3421.3	-0.0000771
3419.3	-0.0000686
3417.4	-0.0000718
3415.5	-0.0000785
3413.6	-0.0000788
3411.6	-0.0000766
3409.7	-0.0000760
3407.8	-0.0000745
3405.8	-0.0000717
3403.9	-0.0000714
3402.0	-0.0000759
3400.1	-0.0000764
3398.1	-0.0000707
3396.2	-0.0000685
3394.3	-0.0000707
3392.3	-0.0000699
3390.4	-0.0000716
3388.5	-0.0000803
3386.6	-0.0000844
3384.6	-0.0000766
3382.7	-0.0000666
3380.8	-0.0000606
3378.8	-0.0000567
3376.9	-0.0000582
3375.0	-0.0000608
3373.1	-0.0000488
3371.1	-0.0000308
3369.2	-0.0000304
3367.3	-0.0000451
3365.3	-0.0000570
3363.4	-0.0000597
3361.5	-0.0000548
3359.6	-0.0000439
3357.6	-0.0000324
3355.7	-0.0000265
3353.8	-0.0000275
3351.8	-0.0000329
3349.9	-0.0000381
3348.0	-0.0000440
3346.1	-0.0000515
3344.1	-0.0000519
3342.2	-0.0000428
3340.3	-0.0000386
3338.3	-0.0000466
3336.4	-0.0000531
3334.5	-0.0000487
3332.6	-0.0000400
3330.6	-0.0000348
3328.7	-0.0000327
3326.8	-0.0000328
3324.8	-0.0000347
3322.9	-0.0000342
3321.0	-0.0000327
3319.1	-0.0000286
3317.1	-0.0000176
3315.2	-0.0000114
3313.3	-0.0000154
3311.3	-0.0000176
3309.4	-0.0000141
3307.5	-0.0000086
3305.6	-0.0000005
3303.6	0.0000071
3301.7	0.0000085
3299.8	0.0000017
3297.8	-0.0000143
3295.9	-0.0000310
3294.0	-0.0000284
3292.1	-0.0000054
3290.1	0.0000115
3288.2	0.0000100
3286.3	0.0000054
3284.3	0.0000052
3282.4	0.0000037
3280.5	0.0000022
3278.6	0.0000061
3276.6	0.0000161
3274.7	0.0000271
3272.8	0.0000319
3270.8	0.0000323
3268.9	0.0000360
3267.0	0.0000458
3265.1	0.0000577
3263.1	0.0000611
3261.2	0.0000524
3259.3	0.0000446
3257.3	0.0000481
3255.4	0.0000575
3253.5	0.0000630
3251.6	0.0000613
3249.6	0.0000551
3247.7	0.0000533
3245.8	0.0000569
3243.8	0.0000557
3241.9	0.0000503
3240.0	0.0000491
3238.1	0.0000542
3236.1	0.0000661
3234.2	0.0000769
3232.3	0.0000763
3230.3	0.0000707
3228.4	0.0000649
3226.5	0.0000589
3224.6	0.0000577
3222.6	0.0000603
3220.7	0.0000658
3218.8	0.0000778
3216.8	0.0000880
3214.9	0.0000844
3213.0	0.0000711
3211.1	0.0000649
3209.1	0.0000672
3207.2	0.0000677
3205.3	0.0000671
3203.3	0.0000681
3201.4	0.0000641
3199.5	0.0000551
3197.6	0.0000515
3195.6	0.0000515
3193.7	0.0000466
3191.8	0.0000431
3189.8	0.0000473
3187.9	0.0000525
3186.0	0.0000555
3184.1	0.0000569
3182.1	0.0000534
3180.2	0.0000491
3178.3	0.0000467
3176.3	0.0000395
3174.4	0.0000273
3172.5	0.0000222
3170.6	0.0000286
3168.6	0.0000356
3166.7	0.0000349
3164.8	0.0000286
3162.8	0.0000225
3160.9	0.0000220
3159.0	0.0000251
3157.1	0.0000261
3155.1	0.0000238
3153.2	0.0000214
3151.3	0.0000194
3149.3	0.0000127
3147.4	0.0000046
3145.5	0.0000062
3143.6	0.0000116
3141.6	0.0000101
3139.7	0.0000075
3137.8	0.0000072
3135.8	0.0000028
3133.9	-0.0000056
3132.0	-0.0000115
3130.1	-0.0000128
3128.1	-0.0000118
3126.2	-0.0000130
3124.3	-0.0000171
3122.3	-0.0000166
3120.4	-0.0000108
3118.5	-0.0000095
3116.6	-0.0000149
3114.6	-0.0000205
3112.7	-0.0000224
3110.8	-0.0000260
3108.8	-0.0000333
3106.9	-0.0000388
3105.0	-0.0000437
3103.1	-0.0000493
3101.1	-0.0000523
3099.2	-0.0000552
3097.3	-0.0000594
3095.3	-0.0000619
3093.4	-0.0000637
3091.5	-0.0000650
3089.6	-0.0000662
3087.6	-0.0000680
3085.7	-0.0000662
3083.8	-0.0000620
3081.8	-0.0000631
3079.9	-0.0000703
3078.0	-0.0000790
3076.1	-0.0000845
3074.1	-0.0000848
3072.2	-0.0000804
3070.3	-0.0000731
3068.3	-0.0000712
3066.4	-0.0000757
3064.5	-0.0000759
3062.6	-0.0000726
3060.6	-0.0000720
3058.7	-0.0000721
3056.8	-0.0000707
3054.8	-0.0000721
3052.9	-0.0000797
3051.0	-0.0000849
3049.1	-0.0000784
3047.1	-0.0000679
3045.2	-0.0000658
3043.3	-0.0000714
3041.3	-0.0000792
3039.4	-0.0000851
3037.5	-0.0000865
3035.6	-0.0000857
3033.6	-0.0000844
3031.7	-0.0000830
3029.8	-0.0000835
3027.8	-0.0000840
3025.9	-0.0000801
3024.0	-0.0000730
3022.1	-0.0000720
3020.1	-0.0000826
3018.2	-0.0000945
3016.3	-0.0000966
3014.3	-0.0000896
3012.4	-0.0000797
3010.5	-0.0000731
3008.6	-0.0000759
3006.6	-0.0000836
3004.7	-0.0000829
3002.8	-0.0000762
3000.8	-0.0000766
2998.9	-0.0000819
2997.0	-0.0000825
2995.1	-0.0000800
2993.1	-0.0000797
2991.2	-0.0000812
2989.3	-0.0000828
2987.3	-0.0000857
2985.4	-0.0000883
2983.5	-0.0000874
2981.6	-0.0000831
2979.6	-0.0000759
2977.7	-0.0000709
2975.8	-0.0000693
2973.8	-0.0000651
2971.9	-0.0000618
2970.0	-0.0000646
2968.1	-0.0000681
2966.1	-0.0000691
2964.2	-0.0000685
2962.3	-0.0000697
2960.3	-0.0000734
2958.4	-0.0000728
2956.5	-0.0000641
2954.6	-0.0000541
2952.6	-0.0000523
2950.7	-0.0000587
2948.8	-0.0000670
2946.8	-0.0000709
2944.9	-0.0000650
2943.0	-0.0000573
2941.1	-0.0000605
2939.1	-0.0000713
2937.2	-0.0000800
2935.3	-0.0000838
2933.3	-0.0000820
2931.4	-0.0000753
2929.5	-0.0000645
2927.6	-0.0000522
2925.6	-0.0000451
2923.7	-0.0000490
2921.8	-0.0000569
2919.8	-0.0000592
2917.9	-0.0000571
2916.0	-0.0000563
2914.1	-0.0000586
2912.1	-0.0000626
2910.2	-0.0000654
2908.3	-0.0000655
2906.3	-0.0000655
2904.4	-0.0000654
2902.5	-0.0000625
2900.6	-0.0000621
2898.6	-0.0000687
2896.7	-0.0000740
2894.8	-0.0000706
2892.8	-0.0000654
2890.9	-0.0000639
2889.0	-0.0000615
2887.1	-0.0000602
2885.1	-0.0000636
2883.2	-0.0000655
2881.3	-0.0000637
2879.3	-0.0000640
2877.4	-0.0000666
2875.5	-0.0000663
2873.6	-0.0000637
2871.6	-0.0000573
2869.7	-0.0000462
2867.8	-0.0000418
2865.8	-0.0000479
2863.9	-0.0000537
2862.0	-0.0000532
2860.1	-0.0000507
2858.1	-0.0000517
2856.2	-0.0000549
2854.3	-0.0000530
2852.3	-0.0000450
2850.4	-0.0000414
2848.5	-0.0000438
2846.6	-0.0000417
2844.6	-0.0000390
2842.7	-0.0000452
2840.8	-0.0000538
2838.8	-0.0000558
2836.9	-0.0000554
2835.0	-0.0000590
2833.1	-0.0000621
2831.1	-0.0000590
2829.2	-0.0000545
2827.3	-0.0000519
2825.3	-0.0000481
2823.4	-0.0000454
2821.5	-0.0000459
2819.6	-0.0000447
2817.6	-0.0000419
2815.7	-0.0000419
2813.8	-0.0000468
2811.8	-0.0000547
2809.9	-0.0000587
2808.0	-0.0000550
2806.1	-0.0000508
2804.1	-0.0000535
2802.2	-0.0000565
2800.3	-0.0000506
2798.3	-0.0000433
2796.4	-0.0000440
2794.5	-0.0000480
2792.6	-0.0000474
2790.6	-0.0000436
2788.7	-0.0000430
2786.8	-0.0000432
2784.8	-0.0000390
2782.9	-0.0000373
2781.0	-0.0000395
2779.1	-0.0000407
2777.1	-0.0000422
2775.2	-0.0000404
2773.3	-0.0000328
2771.3	-0.0000263
2769.4	-0.0000238
2767.5	-0.0000233
2765.6	-0.0000239
2763.6	-0.0000246
2761.7	-0.0000275
2759.8	-0.0000331
2757.8	-0.0000392
2755.9	-0.0000462
2754.0	-0.0000471
2752.1	-0.0000357
2750.1	-0.0000237
2748.2	-0.0000210
2746.3	-0.0000206
2744.3	-0.0000190
2742.4	-0.0000228
2740.5	-0.0000303
2738.6	-0.0000338
2736.6	-0.0000328
2734.7	-0.0000312
2732.8	-0.0000316
2730.8	-0.0000323
2728.9	-0.0000290
2727.0	-0.0000258
2725.1	-0.0000277
2723.1	-0.0000284
2721.2	-0.0000248
2719.3	-0.0000231
2717.3	-0.0000238
2715.4	-0.0000243
2713.5	-0.0000243
2711.6	-0.0000210
2709.6	-0.0000162
2707.7	-0.0000169
2705.8	-0.0000214
2703.8	-0.0000249
2701.9	-0.0000279
2700.0	-0.0000296
2698.1	-0.0000286
2696.1	-0.0000292
2694.2	-0.0000339
2692.3	-0.0000346
2690.3	-0.0000286
2688.4	-0.0000258
2686.5	-0.0000279
2684.6	-0.0000252
2682.6	-0.0000175
2680.7	-0.0000138
2678.8	-0.0000155
2676.8	-0.0000181
2674.9	-0.0000209
2673.0	-0.0000229
2671.1	-0.0000201
2669.1	-0.0000147
2667.2	-0.0000148
2665.3	-0.0000179
2663.3	-0.0000173
2661.4	-0.0000152
2659.5	-0.0000139
2657.6	-0.0000168
2655.6	-0.0000210
2653.7	-0.0000157
2651.8	-0.0000057
2649.8	-0.0000024
2647.9	-0.0000025
2646.0	0.0000003
2644.1	0.0000031
2642.1	0.0000035
2640.2	0.0000042
2638.3	0.0000035
2636.3	-0.0000017
2634.4	-0.0000078
2632.5	-0.0000108
2630.6	-0.0000114
2628.6	-0.0000095
2626.7	-0.0000048
2624.8	-0.0000008
2622.8	0.0000028
2620.9	0.0000058
2619.0	0.0000023
2617.1	-0.0000050
2615.1	-0.0000050
2613.2	-0.0000014
2611.3	-0.0000048
2609.3	-0.0000076
2607.4	-0.0000022
2605.5	0.0000029
2603.6	0.0000007
2601.6	-0.0000056
2599.7	-0.0000101
2597.8	-0.0000078
2595.8	0.0000011
2593.9	0.0000052
2592.0	0.0000020
2590.1	0.0000019
2588.1	0.0000044
2586.2	0.0000066
2584.3	0.0000116
2582.3	0.0000160
2580.4	0.0000178
2578.5	0.0000164
2576.6	0.0000091
2574.6	0.0000026
2572.7	0.0000047
2570.8	0.0000118
2568.8	0.0000143
2566.9	0.0000100
2565.0	0.0000058
2563.1	0.0000077
2561.1	0.0000144
2559.2	0.0000207
2557.3	0.0000212
2555.3	0.0000180
2553.4	0.0000160
2551.5	0.0000155
2549.6	0.0000177
2547.6	0.0000235
2545.7	0.0000279
2543.8	0.0000275
2541.8	0.0000270
2539.9	0.0000283
2538.0	0.0000281
2536.1	0.0000299
2534.1	0.0000377
2532.2	0.0000463
2530.3	0.0000474
2528.3	0.0000416
2526.4	0.0000381
2524.5	0.0000398
2522.6	0.0000418
2520.6	0.0000403
2518.7	0.0000380
2516.8	0.0000396
2514.8	0.0000420
2512.9	0.0000397
2511.0	0.0000334
2509.1	0.0000294
2507.1	0.0000333
2505.2	0.0000424
2503.3	0.0000468
2501.3	0.0000436
2499.4	0.0000401
2497.5	0.0000391
2495.6	0.0000364
2493.6	0.0000316
2491.7	0.0000300
2489.8	0.0000321
2487.8	0.0000312
2485.9	0.0000288
2484.0	0.0000304
2482.1	0.0000334
2480.1	0.0000351
2478.2	0.0000377
2476.3	0.0000410
2474.3	0.0000403
2472.4	0.0000321
2470.5	0.0000227
2468.6	0.0000212
2466.6	0.0000286
2464.7	0.0000365
2462.8	0.0000400
2460.8	0.0000404
2458.9	0.0000386
2457.0	0.0000347
2455.1	0.0000255
2453.1	0.0000167
2451.2	0.0000214
2449.3	0.0000341
2447.3	0.0000396
2445.4	0.0000381
2443.5	0.0000387
2441.6	0.0000428
2439.6	0.0000449
2437.7	0.0000429
2435.8	0.0000362
2433.8	0.0000290
2431.9	0.0000293
2430.0	0.0000376
2428.1	0.0000433
2426.1	0.0000406
2424.2	0.0000365
2422.3	0.0000340
2420.3	0.0000339
2418.4	0.0000383
2416.5	0.0000419
2414.6	0.0000418
2412.6	0.0000396
2410.7	0.0000333
2408.8	0.0000269
2406.8	0.0000279
2404.9	0.0000333
2403.0	0.0000367
2401.1	0.0000370
2399.1	0.0000355
2397.2	0.0000342
2395.3	0.0000349
2393.3	0.0000383
2391.4	0.0000412
2389.5	0.0000408
2387.6	0.0000412
2385.6	0.0000451
2383.7	0.0000467
2381.8	0.0000439
2379.8	0.0000444
2377.9	0.0000492
2376.0	0.0000522
2374.1	0.0000559
2372.1	0.0000636
2370.2	0.0000710
2368.3	0.0000776
2366.3	0.0000839
2364.4	0.0000863
2362.5	0.0000878
2360.6	0.0000911
2358.6	0.0000898
2356.7	0.0000818
2354.8	0.0000701
2352.8	0.0000564
2350.9	0.0000471
2349.0	0.0000512
2347.1	0.0000633
2345.1	0.0000725
2343.2	0.0000793
2341.3	0.0000852
2339.3	0.0000898
2337.4	0.0000947
2335.5	0.0000952
2333.6	0.0000916
2331.6	0.0000906
2329.7	0.0000917
2327.8	0.0000938
2325.8	0.0000931
2323.9	0.0000867
2322.0	0.0000812
2320.1	0.0000814
2318.1	0.0000787
2316.2	0.0000704
2314.3	0.0000648
2312.3	0.0000623
2310.4	0.0000595
2308.5	0.0000596
2306.6	0.0000623
2304.6	0.0000611
2302.7	0.0000546
2300.8	0.0000511
2298.8	0.0000552
2296.9	0.0000600
2295.0	0.0000566
2293.1	0.0000483
2291.1	0.0000442
2289.2	0.0000461
2287.3	0.0000527
2285.3	0.0000610
2283.4	0.0000691
2281.5	0.0000746
2279.6	0.0000730
2277.6	0.0000653
2275.7	0.0000558
2273.8	0.0000523
2271.8	0.0000598
2269.9	0.0000696
2268.0	0.0000685
2266.1	0.0000594
2264.1	0.0000524
2262.2	0.0000521
2260.3	0.0000574
2258.3	0.0000619
2256.4	0.0000649
2254.5	0.0000682
2252.6	0.0000681
2250.6	0.0000641
2248.7	0.0000613
2246.8	0.0000612
2244.8	0.0000602
2242.9	0.0000563
2241.0	0.0000501
2239.1	0.0000431
2237.1	0.0000358
2235.2	0.0000308
2233.3	0.0000314
2231.3	0.0000354
2229.4	0.0000409
2227.5	0.0000464
2225.6	0.0000506
2223.6	0.0000535
2221.7	0.0000562
2219.8	0.0000576
2217.8	0.0000564
2215.9	0.0000561
2214.0	0.0000571
2212.1	0.0000586
2210.1	0.0000613
2208.2	0.0000636
2206.3	0.0000653
2204.3	0.0000672
2202.4	0.0000689
2200.5	0.0000697
2198.6	0.0000725
2196.6	0.0000757
2194.7	0.0000742
2192.8	0.0000704
2190.8	0.0000705
2188.9	0.0000740
2187.0	0.0000730
2185.1	0.0000729
2183.1	0.0000811
2181.2	0.0000885
2179.3	0.0000877
2177.3	0.0000827
2175.4	0.0000789
2173.5	0.0000757
2171.6	0.0000781
2169.6	0.0000861
2167.7	0.0000943
2165.8	0.0000990
2163.8	0.0000985
2161.9	0.0000997
2160.0	0.0001034
2158.1	0.0001086
2156.1	0.0001121
2154.2	0.0001122
2152.3	0.0001136
2150.3	0.0001206
2148.4	0.0001331
2146.5	0.0001422
2144.6	0.0001498
2142.6	0.0001573
2140.7	0.0001625
2138.8	0.0001699
2136.8	0.0001799
2134.9	0.0001912
2133.0	0.0002012
2131.1	0.0002179
2129.1	0.0002394
2127.2	0.0002602
2125.3	0.0002828
2123.3	0.0003109
2121.4	0.0003501
2119.5	0.0003962
2117.6	0.0004554
2115.6	0.0005336
2113.7	0.0006393
2111.8	0.0007862
2109.8	0.0009994
2107.9	0.0013318
2106.0	0.0019178
2104.1	0.0031802
2102.1	0.0062968
2100.2	0.0122062
2098.3	0.0178576
2096.3	0.0176811
2094.4	0.0119824
2092.5	0.0061290
2090.6	0.0025301
2088.6	0.0005547
2086.7	-0.0002385
2084.8	-0.0001840
2082.8	0.0001041
2080.9	0.0002596
2079.0	0.0002824
2077.1	0.0002547
2075.1	0.0002254
2073.2	0.0002046
2071.3	0.0001902
2069.3	0.0001843
2067.4	0.0001813
2065.5	0.0001815
2063.6	0.0001798
2061.6	0.0001738
2059.7	0.0001630
2057.8	0.0001491
2055.8	0.0001344
2053.9	0.0001194
2052.0	0.0001083
2050.1	0.0000945
2048.1	0.0000792
2046.2	0.0000668
2044.3	0.0000559
2042.3	0.0000431
2040.4	0.0000236
2038.5	0.0000041
2036.6	-0.0000077
2034.6	-0.0000121
2032.7	-0.0000190
2030.8	-0.0000277
2028.8	-0.0000325
2026.9	-0.0000386
2025.0	-0.0000423
2023.1	-0.0000381
2021.1	-0.0000328
2019.2	-0.0000333
2017.3	-0.0000357
2015.3	-0.0000396
2013.4	-0.0000431
2011.5	-0.0000402
2009.6	-0.0000332
2007.6	-0.0000288
2005.7	-0.0000338
2003.8	-0.0000458
2001.8	-0.0000570
1999.9	-0.0000644
1998.0	-0.0000661
1996.1	-0.0000608
1994.1	-0.0000490
1992.2	-0.0000403
1990.3	-0.0000444
1988.3	-0.0000564
1986.4	-0.0000684
1984.5	-0.0000768
1982.6	-0.0000804
1980.6	-0.0000792
1978.7	-0.0000768
1976.8	-0.0000779
1974.8	-0.0000825
1972.9	-0.0000843
1971.0	-0.0000773
1969.1	-0.0000686
1967.1	-0.0000705
1965.2	-0.0000794
1963.3	-0.0000823
1961.4	-0.0000825
1959.4	-0.0000845
1957.5	-0.0000836
1955.6	-0.0000809
1953.6	-0.0000809
1951.7	-0.0000823
1949.8	-0.0000794
1947.9	-0.0000715
1945.9	-0.0000580
1944.0	-0.0000414
1942.1	-0.0000397
1940.1	-0.0000572
1938.2	-0.0000713
1936.3	-0.0000718
1934.4	-0.0000679
1932.4	-0.0000652
1930.5	-0.0000657
1928.6	-0.0000653
1926.6	-0.0000539
1924.7	-0.0000327
1922.8	-0.0000178
1920.9	-0.0000007
1918.9	0.0000253
1917.0	0.0000287
1915.1	0.0000122
1913.1	0.0000122
1911.2	0.0000275
1909.3	0.0000456
1907.4	0.0000690
1905.4	0.0001029
1903.5	0.0001478
1901.6	0.0001964
1899.6	0.0002440
1897.7	0.0002875
1895.8	0.0003167
1893.9	0.0003306
1891.9	0.0003541
1890.0	0.0003915
1888.1	0.0004086
1886.1	0.0004007
1884.2	0.0003925
1882.3	0.0003880
1880.4	0.0003830
1878.4	0.0003871
1876.5	0.0004184
1874.6	0.0005011
1872.6	0.0006763
1870.7	0.0009277
1868.8	0.0011030
1866.9	0.0010748
1864.9	0.0009078
1863.0	0.0007238
1861.1	0.0005696
1859.1	0.0004534
1857.2	0.0003727
1855.3	0.0003106
1853.4	0.0002504
1851.4	0.0001990
1849.5	0.0001759
1847.6	0.0002080
1845.6	0.0002789
1843.7	0.0002730
1841.8	0.0001606
1839.9	0.0000643
1837.9	0.0000300
1836.0	0.0000126
1834.1	0.0000112
1832.1	0.0000481
1830.2	0.0000833
1828.3	0.0000728
1826.4	0.0000491
1824.4	0.0000261
1822.5	-0.0000080
1820.6	-0.0000260
1818.6	-0.0000223
1816.7	-0.0000184
1814.8	-0.0000148
1812.9	0.0000001
1810.9	0.0000128
1809.0	0.0000002
1807.1	-0.0000249
1805.1	-0.0000284
1803.2	0.0000040
1801.3	0.0000412
1799.4	0.0000411
1797.4	0.0000241
1795.5	0.0000588
1793.6	0.0001339
1791.6	0.0001403
1789.7	0.0000635
1787.8	0.0000138
1785.9	0.0000235
1783.9	0.0000333
1782.0	0.0000256
1780.1	0.0000148
1778.1	0.0000095
1776.2	0.0000668
1774.3	0.0002158
1772.4	0.0003141
1770.4	0.0002545
1768.5	0.0001409
1766.6	0.0000639
1764.6	0.0000463
1762.7	0.0000762
1760.8	0.0000822
1758.9	0.0000660
1756.9	0.0000588
1755.0	0.0000719
1753.1	0.0001500
1751.1	0.0002294
1749.2	0.0002014
1747.3	0.0001168
1745.4	0.0000714
1743.4	0.0000849
1741.5	0.0001333
1739.6	0.0001619
1737.6	0.0002255
1735.7	0.0004051
1733.8	0.0004854
1731.9	0.0003106
1729.9	0.0001072
1728.0	0.0000228
1726.1	0.0000042
1724.1	0.0000104
1722.2	0.0000601
1720.3	0.0002369
1718.4	0.0004689
1716.4	0.0004991
1714.5	0.0003061
1712.6	0.0001179
1710.6	0.0000491
1708.7	0.0000793
1706.8	0.0001471
1704.9	0.0002111
1702.9	0.0003636
1701.0	0.0005698
1699.1	0.0006271
1697.1	0.0005722
1695.2	0.0004464
1693.3	0.0002211
1691.4	0.0000744
1689.4	0.0000991
1687.5	0.0003019
1685.6	0.0005782
1683.6	0.0005770
1681.7	0.0002913
1679.8	0.0000889
1677.9	0.0001119
1675.9	0.0002104
1674.0	0.0002254
1672.1	0.0002157
1670.1	0.0002414
1668.2	0.0001966
1666.3	0.0001112
1664.4	0.0001063
1662.4	0.0001154
1660.5	0.0000661
1658.6	0.0000542
1656.6	0.0002785
1654.7	0.0007428
1652.8	0.0009400
1650.9	0.0006382
1648.9	0.0003885
1647.0	0.0003965
1645.1	0.0003210
1643.1	0.0001346
1641.2	0.0000461
1639.3	0.0001289
1637.4	0.0003331
1635.4	0.0004226
1633.5	0.0002583
1631.6	0.0000760
1629.6	0.0000445
1627.7	0.0000740
1625.8	0.0001111
1623.9	0.0001393
1621.9	0.0001189
1620.0	0.0001601
1618.1	0.0003231
1616.1	0.0003574
1614.2	0.0001797
1612.3	0.0000408
1610.4	0.0000225
1608.4	0.0000272
1606.5	0.0000232
1604.6	0.0000210
1602.6	0.0000182
1600.7	0.0000116
1598.8	0.0000092
1596.9	0.0000114
1594.9	0.0000102
1593.0	0.0000043
1591.1	0.0000016
1589.1	0.0000038
1587.2	0.0000042
1585.3	0.0000006
1583.4	-0.0000015
1581.4	0.0000181
1579.5	0.0001408
1577.6	0.0003620
1575.6	0.0004179
1573.7	0.0002553
1571.8	0.0001837
1569.9	0.0002228
1567.9	0.0001823
1566.0	0.0001104
1564.1	0.0001488
1562.1	0.0004232
1560.2	0.0008309
1558.3	0.0009330
1556.4	0.0006619
1554.4	0.0003847
1552.5	0.0002247
1550.6	0.0001305
1548.6	0.0001036
1546.7	0.0001656
1544.8	0.0003341
1542.9	0.0005962
1540.9	0.0008222
1539.0	0.0007500
1537.1	0.0004487
1535.1	0.0002850
1533.2	0.0002573
1531.3	0.0001872
1529.4	0.0001446
1527.4	0.0001903
1525.5	0.0002807
1523.6	0.0004278
1521.6	0.0005363
1519.7	0.0004637
1517.8	0.0003106
1515.9	0.0002063
1513.9	0.0001540
1512.0	0.0001721
1510.1	0.0003341
1508.1	0.0006274
1506.2	0.0007307
1504.3	0.0004598
1502.4	0.0001659
1500.4	0.0001243
1498.5	0.0002257
1496.6	0.0002680
1494.6	0.0001938
1492.7	0.0001386
1490.8	0.0001678
1488.9	0.0001730
1486.9	0.0001066
1485.0	0.0000357
1483.1	0.0000086
1481.1	0.0000116
1479.2	0.0000369
1477.3	0.0001071
1475.4	0.0002218
1473.4	0.0003049
1471.5	0.0002445
1469.6	0.0001022
1467.6	0.0000639
1465.7	0.0001180
1463.8	0.0001154
1461.9	0.0000973
1459.9	0.0002486
1458.0	0.0004855
1456.1	0.0004742
1454.1	0.0002237
1452.2	0.0000457
1450.3	0.0000246
1448.4	0.0000431
1446.4	0.0000186
1444.5	-0.0000283
1442.6	-0.0000412
1440.6	0.0000148
1438.7	0.0001529
1436.8	0.0002409
1434.9	0.0001534
1432.9	0.0000344
1431.0	0.0000144
1429.1	0.0000197
1427.1	0.0000038
1425.2	-0.0000020
1423.3	0.0000369
1421.4	0.0001507
1419.4	0.0002377
1417.5	0.0001640
1415.6	0.0000261
1413.6	-0.0000378
1411.7	-0.0000444
1409.8	-0.0000384
1407.9	-0.0000184
1405.9	0.0000119
1404.0	0.0000209
1402.1	0.0000273
1400.1	0.0000650
1398.2	0.0001037
1396.3	0.0001252
1394.4	0.0001112
1392.4	0.0000463
1390.5	0.0000056
1388.6	0.0000226
1386.6	0.0000184
1384.7	-0.0000294
1382.8	-0.0000593
1380.9	-0.0000541
1378.9	-0.0000381
1377.0	-0.0000143
1375.1	0.0000089
1373.1	0.0000049
1371.2	-0.0000152
1369.3	-0.0000238
1367.4	-0.0000296
1365.4	-0.0000299
1363.5	-0.0000118
1361.6	-0.0000043
1359.6	-0.0000272
1357.7	-0.0000526
1355.8	-0.0000611
1353.9	-0.0000648
1351.9	-0.0000655
1350.0	-0.0000592
1348.1	-0.0000589
1346.1	-0.0000695
1344.2	-0.0000698
1342.3	-0.0000442
1340.4	-0.0000164
1338.4	-0.0000191
1336.5	-0.0000414
1334.6	-0.0000561
1332.6	-0.0000626
1330.7	-0.0000698
1328.8	-0.0000773
1326.9	-0.0000823
1324.9	-0.0000808
1323.0	-0.0000745
1321.1	-0.0000688
1319.1	-0.0000659
1317.2	-0.0000672
1315.3	-0.0000700
1313.4	-0.0000725
1311.4	-0.0000778
1309.5	-0.0000845
1307.6	-0.0000902
1305.6	-0.0000949
1303.7	-0.0000968
1301.8	-0.0000965
1299.9	-0.0000957
1297.9	-0.0000928
1296.0	-0.0000882
1294.1	-0.0000864
1292.1	-0.0000868
1290.2	-0.0000862
1288.3	-0.0000906
1286.4	-0.0001019
1284.4	-0.0001058
1282.5	-0.0000998
1280.6	-0.0000973
1278.6	-0.0000998
1276.7	-0.0001006
1274.8	-0.0001003
1272.9	-0.0001013
1270.9	-0.0001020
1269.0	-0.0000999
1267.1	-0.0000915
1265.1	-0.0000810
1263.2	-0.0000782
1261.3	-0.0000788
1259.4	-0.0000730
1257.4	-0.0000676
1255.5	-0.0000717
1253.6	-0.0000795
1251.6	-0.0000780
1249.7	-0.0000678
1247.8	-0.0000637
1245.9	-0.0000715
1243.9	-0.0000787
1242.0	-0.0000783
1240.1	-0.0000761
1238.1	-0.0000751
1236.2	-0.0000754
1234.3	-0.0000807
1232.4	-0.0000889
1230.4	-0.0000935
1228.5	-0.0000869
1226.6	-0.0000687
1224.6	-0.0000580
1222.7	-0.0000637
1220.8	-0.0000679
1218.9	-0.0000673
1216.9	-0.0000715
1215.0	-0.0000763
1213.1	-0.0000779
1211.1	-0.0000733
1209.2	-0.0000673
1207.3	-0.0000701
1205.4	-0.0000765
1203.4	-0.0000791
1201.5	-0.0000756
1199.6	-0.0000649
1197.6	-0.0000550
1195.7	-0.0000547
1193.8	-0.0000636
1191.9	-0.0000729
1189.9	-0.0000699
1188.0	-0.0000560
1186.1	-0.0000503
1184.1	-0.0000655
1182.2	-0.0000846
1180.3	-0.0000796
1178.4	-0.0000610
1176.4	-0.0000569
1174.5	-0.0000639
1172.6	-0.0000696
1170.6	-0.0000754
1168.7	-0.0000834
1166.8	-0.0000906
1164.9	-0.0000914
1162.9	-0.0000844
1161.0	-0.0000754
1159.1	-0.0000684
1157.1	-0.0000613
1155.2	-0.0000569
1153.3	-0.0000589
1151.4	-0.0000602
1149.4	-0.0000623
1147.5	-0.0000727
1145.6	-0.0000834
1143.6	-0.0000816
1141.7	-0.0000691
1139.8	-0.0000594
1137.9	-0.0000565
1135.9	-0.0000506
1134.0	-0.0000438
1132.1	-0.0000474
1130.1	-0.0000591
1128.2	-0.0000674
1126.3	-0.0000673
1124.4	-0.0000622
1122.4	-0.0000617
1120.5	-0.0000676
1118.6	-0.0000690
1116.6	-0.0000668
1114.7	-0.0000666
1112.8	-0.0000628
1110.9	-0.0000598
1108.9	-0.0000634
1107.0	-0.0000647
1105.1	-0.0000622
1103.1	-0.0000649
1101.2	-0.0000749
1099.3	-0.0000866
1097.4	-0.0000974
1095.4	-0.0001011
1093.5	-0.0000888
1091.6	-0.0000692
1089.6	-0.0000579
1087.7	-0.0000572
1085.8	-0.0000626
1083.9	-0.0000698
1081.9	-0.0000737
1080.0	-0.0000741
1078.1	-0.0000736
1076.1	-0.0000725
1074.2	-0.0000655
1072.3	-0.0000543
1070.4	-0.0000498
1068.4	-0.0000542
1066.5	-0.0000600
1064.6	-0.0000636
1062.6	-0.0000660
1060.7	-0.0000664
1058.8	-0.0000648
1056.9	-0.0000672
1054.9	-0.0000689
1053.0	-0.0000628
1051.1	-0.0000588
1049.1	-0.0000600
1047.2	-0.0000612
1045.3	-0.0000635
1043.4	-0.0000649
1041.4	-0.0000670
1039.5	-0.0000739
1037.6	-0.0000813
1035.6	-0.0000851
1033.7	-0.0000839
1031.8	-0.0000811
1029.9	-0.0000811
1027.9	-0.0000817
1026.0	-0.0000783
1024.1	-0.0000731
1022.1	-0.0000682
1020.2	-0.0000609
1018.3	-0.0000526
1016.4	-0.0000517
1014.4	-0.0000570
1012.5	-0.0000572
1010.6	-0.0000547
1008.6	-0.0000577
1006.7	-0.0000576
1004.8	-0.0000514
1002.9	-0.0000526
1000.9	-0.0000653
999.0	-0.0000753
997.1	-0.0000739
995.1	-0.0000700
993.2	-0.0000719
991.3	-0.0000778
989.4	-0.0000777
987.4	-0.0000656
985.5	-0.0000554
983.6	-0.0000575
981.6	-0.0000612
979.7	-0.0000567
977.8	-0.0000474
975.9	-0.0000436
973.9	-0.0000516
972.0	-0.0000614
970.1	-0.0000605
968.1	-0.0000522
966.2	-0.0000470
964.3	-0.0000507
962.4	-0.0000549
960.4	-0.0000553
958.5	-0.0000625
956.6	-0.0000687
954.6	-0.0000614
952.7	-0.0000556
950.8	-0.0000585
948.9	-0.0000635
946.9	-0.0000658
945.0	-0.0000624
943.1	-0.0000623
941.1	-0.0000712
939.2	-0.0000729
937.3	-0.0000670
935.4	-0.0000724
933.4	-0.0000818
931.5	-0.0000879
929.6	-0.0000998
927.6	-0.0001100
925.7	-0.0001103
923.8	-0.0001021
921.9	-0.0000849
919.9	-0.0000702
918.0	-0.0000744
916.1	-0.0000921
914.1	-0.0001061
912.2	-0.0001081
910.3	-0.0001036
908.4	-0.0000952
906.4	-0.0000830
904.5	-0.0000809
902.6	-0.0000916
900.6	-0.0000947
898.7	-0.0000890
896.8	-0.0000900
894.9	-0.0000922
892.9	-0.0000788
891.0	-0.0000579
889.1	-0.0000492
887.1	-0.0000617
885.2	-0.0000880
883.3	-0.0000961
881.4	-0.0000806
879.4	-0.0000747
877.5	-0.0000799
875.6	-0.0000711
873.6	-0.0000564
871.7	-0.0000592
869.8	-0.0000679
867.9	-0.0000677
865.9	-0.0000724
864.0	-0.0000842
862.1	-0.0000818
860.1	-0.0000648
858.2	-0.0000647
856.3	-0.0000892
854.4	-0.0000942
852.4	-0.0000594
850.5	-0.0000293
848.6	-0.0000317
846.6	-0.0000298
844.7	-0.0000045
842.8	0.0000101
840.9	-0.0000061
838.9	-0.0000348
837.0	-0.0000444
835.1	-0.0000268
833.1	-0.0000098
831.2	-0.0000105
829.3	-0.0000164
827.4	-0.0000205
825.4	-0.0000192
823.5	-0.0000021
821.6	0.0000168
819.6	0.0000152
817.7	0.0000049
815.8	0.0000022
813.9	0.0000133
811.9	0.0000314
810.0	0.0000387
808.1	0.0000297
806.1	0.0000045
804.2	-0.0000133
802.3	-0.0000043
800.4	0.0000212
798.4	0.0000575
796.5	0.0000757
794.6	0.0000676
792.6	0.0000654
790.7	0.0000523
788.8	0.0000264
786.9	0.0000205
784.9	0.0000340
783.0	0.0000560
781.1	0.0000565
779.1	0.0000387
777.2	0.0000737
775.3	0.0001440
773.4	0.0001624
771.4	0.0001440
769.5	0.0001520
767.6	0.0001469
765.6	0.0000922
763.7	0.0000728
761.8	0.0001250
759.9	0.0001551
757.9	0.0001403
756.0	0.0001467
754.1	0.0001576
752.1	0.0001354
750.2	0.0001044
748.3	0.0000661
746.4	0.0000415
744.4	0.0000726
742.5	0.0001112
740.6	0.0000740
738.6	-0.0000132
736.7	-0.0000585
734.8	-0.0000877
732.9	-0.0001459
730.9	-0.0001689
729.0	-0.0001481
727.1	-0.0001494
725.1	-0.0001949
723.2	-0.0002987
721.3	-0.0004101
719.4	-0.0004476
717.4	-0.0004782
715.5	-0.0005371
713.6	-0.0005577
711.6	-0.0005931
709.7	-0.0006521
707.8	-0.0006809
705.9	-0.0007364
703.9	-0.0007924
702.0	-0.0007618
700.1	-0.0007429
698.1	-0.0008227
696.2	-0.0009018
694.3	-0.0009272
692.4	-0.0009548
690.4	-0.0009691
688.5	-0.0008909
686.6	-0.0007680
684.6	-0.0007163
682.7	-0.0006616
680.8	-0.0005483
678.9	-0.0004976
676.9	-0.0005740
675.0	-0.0006668
673.1	-0.0006575
671.1	-0.0005866
669.2	-0.0004937
667.3	-0.0003799
665.4	-0.0003266
663.4	-0.0003655
661.5	-0.0005341
659.6	-0.0008358
657.6	-0.0010056
655.7	-0.0008332
653.8	-0.0004736
651.9	-0.0002396
649.9	-0.0003642
648.0	-0.0007014
646.1	-0.0008716
644.1	-0.0008126
642.2	-0.0007346
640.3	-0.0007605
638.4	-0.0008553
636.4	-0.0008972
634.5	-0.0008059
632.6	-0.0006917
630.6	-0.0006734
628.7	-0.0006723
626.8	-0.0006493
624.9	-0.0006186
622.9	-0.0005778
621.0	-0.0006040
619.1	-0.0006356
617.1	-0.0005636
615.2	-0.0005014
613.3	-0.0005281
611.4	-0.0005857
609.4	-0.0006039
607.5	-0.0005400
605.6	-0.0005304
603.6	-0.0006678
601.7	-0.0007425
599.8	-0.0006753
