3997.9	-0.0000156
3996.0	-0.0000168
3994.1	-0.0000217
3992.1	-0.0000226
3990.2	-0.0000091
3988.3	0.0000037
3986.3	-0.0000021
3984.4	-0.0000217
3982.5	-0.0000399
3980.6	-0.0000496
3978.6	-0.0000468
3976.7	-0.0000301
3974.8	-0.0000161
3972.8	-0.0000217
3970.9	-0.0000323
3969.0	-0.0000257
3967.1	-0.0000128
3965.1	-0.0000106
3963.2	-0.0000141
3961.3	-0.0000185
3959.3	-0.0000260
3957.4	-0.0000344
3955.5	-0.0000367
3953.6	-0.0000293
3951.6	-0.0000149
3949.7	-0.0000006
3947.8	0.0000023
3945.8	-0.0000044
3943.9	-0.0000090
3942.0	-0.0000206
3940.1	-0.0000434
3938.1	-0.0000541
3936.2	-0.0000404
3934.3	-0.0000116
3932.3	0.0000071
3930.4	-0.0000087
3928.5	-0.0000403
3926.6	-0.0000488
3924.6	-0.0000353
3922.7	-0.0000201
3920.8	0.0000003
3918.8	0.0000169
3916.9	0.0000026
3915.0	-0.0000345
3913.1	-0.0000596
3911.1	-0.0000667
3909.2	-0.0000567
3907.3	-0.0000065
3905.3	0.0000696
3903.4	0.0001165
3901.5	0.0001151
3899.6	0.0000759
3897.6	0.0000108
3895.7	-0.0000311
3893.8	-0.0000043
3891.8	0.0000328
3889.9	0.0000261
3888.0	0.0000427
3886.1	0.0000873
3884.1	0.0000778
3882.2	0.0000466
3880.3	0.0000284
3878.3	-0.0000046
3876.4	-0.0000174
3874.5	0.0000135
3872.6	0.0000870
3870.6	0.0001642
3868.7	0.0001634
3866.8	0.0001364
3864.8	0.0001378
3862.9	0.0000979
3861.0	0.0000137
3859.1	-0.0000050
3857.1	0.0001859
3855.2	0.0005379
3853.3	0.0006766
3851.3	0.0004253
3849.4	0.0000959
3847.5	-0.0000530
3845.6	-0.0000616
3843.6	-0.0000236
3841.7	0.0000533
3839.8	0.0001727
3837.8	0.0002385
3835.9	0.0001832
3834.0	0.0000941
3832.1	0.0000358
3830.1	-0.0000109
3828.2	-0.0000370
3826.3	-0.0000330
3824.3	0.0000078
3822.4	0.0000798
3820.5	0.0001087
3818.6	0.0001068
3816.6	0.0001151
3814.7	0.0000532
3812.8	-0.0000516
3810.8	-0.0000566
3808.9	0.0000541
3807.0	0.0001383
3805.1	0.0001420
3803.1	0.0001751
3801.2	0.0001892
3799.3	0.0000974
3797.3	0.0000108
3795.4	-0.0000364
3793.5	-0.0000904
3791.6	-0.0001213
3789.6	-0.0001235
3787.7	-0.0001228
3785.8	-0.0001196
3783.8	-0.0001053
3781.9	-0.0000745
3780.0	-0.0000525
3778.1	-0.0000729
3776.1	-0.0001054
3774.2	-0.0000989
3772.3	-0.0000533
3770.3	-0.0000093
3768.4	-0.0000004
3766.5	-0.0000182
3764.6	-0.0000455
3762.6	-0.0000466
3760.7	0.0000006
3758.8	0.0000228
3756.8	0.0000020
3754.9	0.0000551
3753.0	0.0002308
3751.1	0.0003915
3749.1	0.0004033
3747.2	0.0004181
3745.3	0.0005105
3743.3	0.0004105
3741.4	0.0001499
3739.5	0.0000537
3737.6	0.0001291
3735.6	0.0001964
3733.7	0.0001784
3731.8	0.0000908
3729.8	0.0000003
3727.9	-0.0000272
3726.0	-0.0000123
3724.1	-0.0000114
3722.1	-0.0000213
3720.2	-0.0000394
3718.3	-0.0000671
3716.3	-0.0000506
3714.4	0.0000637
3712.5	0.0001771
3710.6	0.0001338
3708.6	-0.0000094
3706.7	-0.0001084
3704.8	-0.0001158
3702.8	-0.0000726
3700.9	-0.0000627
3699.0	-0.0000947
3697.1	-0.0001146
3695.1	-0.0000888
3693.2	-0.0000021
3691.3	0.0001313
3689.3	0.0002071
3687.4	0.0001229
3685.5	-0.0000287
3683.6	-0.0000963
3681.6	-0.0000798
3679.7	-0.0000042
3677.8	0.0001609
3675.8	0.0002968
3673.9	0.0002781
3672.0	0.0002248
3670.1	0.0001727
3668.1	0.0000395
3666.2	-0.0000933
3664.3	-0.0001453
3662.3	-0.0001485
3660.4	-0.0001161
3658.5	-0.0000277
3656.6	0.0000467
3654.6	0.0000477
3652.7	0.0001009
3650.8	0.0002419
3648.8	0.0002774
3646.9	0.0001381
3645.0	-0.0000220
3643.1	-0.0001008
3641.1	-0.0001272
3639.2	-0.0001355
3637.3	-0.0001193
3635.3	-0.0000827
3633.4	-0.0000211
3631.5	0.0001064
3629.6	0.0002096
3627.6	0.0001321
3625.7	-0.0000311
3623.8	-0.0000993
3621.8	-0.0000658
3619.9	-0.0000143
3618.0	-0.0000073
3616.1	-0.0000178
3614.1	0.0000019
3612.2	0.0000376
3610.3	0.0000606
3608.3	0.0000369
3606.4	-0.0000358
3604.5	-0.0000966
3602.6	-0.0001112
3600.6	-0.0001060
3598.7	-0.0001015
3596.8	-0.0000909
3594.8	-0.0000796
3592.9	-0.0000877
3591.0	-0.0000895
3589.1	-0.0000577
3587.1	-0.0000425
3585.2	-0.0000731
3583.3	-0.0001061
3581.3	-0.0001199
3579.4	-0.0001242
3577.5	-0.0001224
3575.6	-0.0001181
3573.6	-0.0001172
3571.7	-0.0001058
3569.8	-0.0000607
3567.8	-0.0000127
3565.9	-0.0000213
3564.0	-0.0000735
3562.1	-0.0001134
3560.1	-0.0001241
3558.2	-0.0001218
3556.3	-0.0001233
3554.3	-0.0001278
3552.4	-0.0001322
3550.5	-0.0001356
3548.6	-0.0001203
3546.6	-0.0000987
3544.7	-0.0001050
3542.8	-0.0001271
3540.8	-0.0001342
3538.9	-0.0001265
3537.0	-0.0001185
3535.1	-0.0001168
3533.1	-0.0001204
3531.2	-0.0001220
3529.3	-0.0001177
3527.3	-0.0001103
3525.4	-0.0001049
3523.5	-0.0001117
3521.6	-0.0001280
3519.6	-0.0001370
3517.7	-0.0001407
3515.8	-0.0001489
3513.8	-0.0001515
3511.9	-0.0001372
3510.0	-0.0001162
3508.1	-0.0001071
3506.1	-0.0001094
3504.2	-0.0001117
3502.3	-0.0001151
3500.3	-0.0001224
3498.4	-0.0001216
3496.5	-0.0001088
3494.6	-0.0000980
3492.6	-0.0000987
3490.7	-0.0001056
3488.8	-0.0001062
3486.8	-0.0001021
3484.9	-0.0001019
3483.0	-0.0001015
3481.1	-0.0001012
3479.1	-0.0001043
3477.2	-0.0001049
3475.3	-0.0001044
3473.3	-0.0001018
3471.4	-0.0000948
3469.5	-0.0000916
3467.6	-0.0000924
3465.6	-0.0000929
3463.7	-0.0000942
3461.8	-0.0000928
3459.8	-0.0000891
3457.9	-0.0000879
3456.0	-0.0000903
3454.1	-0.0000943
3452.1	-0.0000991
3450.2	-0.0001007
3448.3	-0.0000954
3446.3	-0.0000908
3444.4	-0.0000930
3442.5	-0.0000967
3440.6	-0.0000998
3438.6	-0.0000996
3436.7	-0.0000935
3434.8	-0.0000871
3432.8	-0.0000822
3430.9	-0.0000784
3429.0	-0.0000758
3427.1	-0.0000737
3425.1	-0.0000718
3423.2	-0.0000661
3421.3	-0.0000597
3419.3	-0.0000626
3417.4	-0.0000684
3415.5	-0.0000638
3413.6	-0.0000536
3411.6	-0.0000451
3409.7	-0.0000406
3407.8	-0.0000459
3405.8	-0.0000562
3403.9	-0.0000598
3402.0	-0.0000550
3400.1	-0.0000455
3398.1	-0.0000387
3396.2	-0.0000400
3394.3	-0.0000421
3392.3	-0.0000377
3390.4	-0.0000318
3388.5	-0.0000350
3386.6	-0.0000461
3384.6	-0.0000507
3382.7	-0.0000414
3380.8	-0.0000273
3378.8	-0.0000230
3376.9	-0.0000342
3375.0	-0.0000477
3373.1	-0.0000418
3371.1	-0.0000196
3369.2	-0.0000128
3367.3	-0.0000287
3365.3	-0.0000437
3363.4	-0.0000475
3361.5	-0.0000428
3359.6	-0.0000324
3357.6	-0.0000180
3355.7	-0.0000029
3353.8	-0.0000016
3351.8	-0.0000175
3349.9	-0.0000316
3348.0	-0.0000349
3346.1	-0.0000308
3344.1	-0.0000197
3342.2	-0.0000081
3340.3	-0.0000123
3338.3	-0.0000316
3336.4	-0.0000445
3334.5	-0.0000380
3332.6	-0.0000186
3330.6	-0.0000012
3328.7	0.0000068
3326.8	0.0000076
3324.8	0.0000022
3322.9	-0.0000081
3321.0	-0.0000184
3319.1	-0.0000187
3317.1	-0.0000059
3315.2	0.0000030
3313.3	-0.0000036
3311.3	-0.0000138
3309.4	-0.0000150
3307.5	-0.0000056
3305.6	0.0000060
3303.6	0.0000120
3301.7	0.0000152
3299.8	0.0000137
3297.8	-0.0000013
3295.9	-0.0000208
3294.0	-0.0000221
3292.1	-0.0000044
3290.1	0.0000114
3288.2	0.0000199
3286.3	0.0000232
3284.3	0.0000165
3282.4	0.0000067
3280.5	0.0000061
3278.6	0.0000157
3276.6	0.0000285
3274.7	0.0000380
3272.8	0.0000390
3270.8	0.0000328
3268.9	0.0000311
3267.0	0.0000421
3265.1	0.0000554
3263.1	0.0000555
3261.2	0.0000452
3259.3	0.0000408
3257.3	0.0000465
3255.4	0.0000553
3253.5	0.0000593
3251.6	0.0000556
3249.6	0.0000500
3247.7	0.0000510
3245.8	0.0000566
3243.8	0.0000589
3241.9	0.0000585
3240.0	0.0000635
3238.1	0.0000728
3236.1	0.0000798
3234.2	0.0000796
3232.3	0.0000703
3230.3	0.0000592
3228.4	0.0000516
3226.5	0.0000490
3224.6	0.0000543
3222.6	0.0000596
3220.7	0.0000615
3218.8	0.0000683
3216.8	0.0000749
3214.9	0.0000689
3213.0	0.0000567
3211.1	0.0000550
3209.1	0.0000611
3207.2	0.0000624
3205.3	0.0000558
3203.3	0.0000437
3201.4	0.0000316
3199.5	0.0000290
3197.6	0.0000368
3195.6	0.0000421
3193.7	0.0000360
3191.8	0.0000268
3189.8	0.0000235
3187.9	0.0000211
3186.0	0.0000140
3184.1	0.0000097
3182.1	0.0000114
3180.2	0.0000132
3178.3	0.0000129
3176.3	0.0000136
3174.4	0.0000122
3172.5	0.0000101
3170.6	0.0000123
3168.6	0.0000102
3166.7	0.0000024
3164.8	-0.0000014
3162.8	-0.0000044
3160.9	-0.0000062
3159.0	0.0000030
3157.1	0.0000156
3155.1	0.0000137
3153.2	0.0000037
3151.3	0.0000010
3149.3	-0.0000014
3147.4	-0.0000076
3145.5	-0.0000075
3143.6	-0.0000050
3141.6	-0.0000078
3139.7	-0.0000121
3137.8	-0.0000156
3135.8	-0.0000181
3133.9	-0.0000178
3132.0	-0.0000219
3130.1	-0.0000316
3128.1	-0.0000379
3126.2	-0.0000397
3124.3	-0.0000393
3122.3	-0.0000350
3120.4	-0.0000301
3118.5	-0.0000306
3116.6	-0.0000350
3114.6	-0.0000416
3112.7	-0.0000480
3110.8	-0.0000531
3108.8	-0.0000579
3106.9	-0.0000647
3105.0	-0.0000761
3103.1	-0.0000815
3101.1	-0.0000749
3099.2	-0.0000723
3097.3	-0.0000806
3095.3	-0.0000885
3093.4	-0.0000885
3091.5	-0.0000839
3089.6	-0.0000840
3087.6	-0.0000879
3085.7	-0.0000873
3083.8	-0.0000843
3081.8	-0.0000886
3079.9	-0.0001011
3078.0	-0.0001135
3076.1	-0.0001161
3074.1	-0.0001102
3072.2	-0.0001034
3070.3	-0.0000932
3068.3	-0.0000847
3066.4	-0.0000877
3064.5	-0.0000930
3062.6	-0.0000928
3060.6	-0.0000911
3058.7	-0.0000870
3056.8	-0.0000807
3054.8	-0.0000809
3052.9	-0.0000897
3051.0	-0.0000976
3049.1	-0.0000955
3047.1	-0.0000881
3045.2	-0.0000870
3043.3	-0.0000963
3041.3	-0.0001094
3039.4	-0.0001179
3037.5	-0.0001188
3035.6	-0.0001155
3033.6	-0.0001088
3031.7	-0.0001002
3029.8	-0.0000983
3027.8	-0.0001028
3025.9	-0.0001057
3024.0	-0.0001062
3022.1	-0.0001077
3020.1	-0.0001123
3018.2	-0.0001146
3016.3	-0.0001086
3014.3	-0.0000960
3012.4	-0.0000830
3010.5	-0.0000769
3008.6	-0.0000809
3006.6	-0.0000858
3004.7	-0.0000827
3002.8	-0.0000776
3000.8	-0.0000800
2998.9	-0.0000840
2997.0	-0.0000830
2995.1	-0.0000798
2993.1	-0.0000809
2991.2	-0.0000895
2989.3	-0.0000970
2987.3	-0.0000962
2985.4	-0.0000926
2983.5	-0.0000887
2981.6	-0.0000818
2979.6	-0.0000755
2977.7	-0.0000720
2975.8	-0.0000693
2973.8	-0.0000716
2971.9	-0.0000792
2970.0	-0.0000817
2968.1	-0.0000762
2966.1	-0.0000720
2964.2	-0.0000722
2962.3	-0.0000752
2960.3	-0.0000772
2958.4	-0.0000726
2956.5	-0.0000667
2954.6	-0.0000657
2952.6	-0.0000643
2950.7	-0.0000614
2948.8	-0.0000618
2946.8	-0.0000653
2944.9	-0.0000634
2943.0	-0.0000539
2941.1	-0.0000508
2939.1	-0.0000620
2937.2	-0.0000734
2935.3	-0.0000703
2933.3	-0.0000578
2931.4	-0.0000497
2929.5	-0.0000454
2927.6	-0.0000396
2925.6	-0.0000414
2923.7	-0.0000552
2921.8	-0.0000653
2919.8	-0.0000620
2917.9	-0.0000530
2916.0	-0.0000469
2914.1	-0.0000443
2912.1	-0.0000453
2910.2	-0.0000492
2908.3	-0.0000508
2906.3	-0.0000494
2904.4	-0.0000487
2902.5	-0.0000488
2900.6	-0.0000522
2898.6	-0.0000602
2896.7	-0.0000627
2894.8	-0.0000545
2892.8	-0.0000480
2890.9	-0.0000510
2889.0	-0.0000554
2887.1	-0.0000581
2885.1	-0.0000585
2883.2	-0.0000531
2881.3	-0.0000457
2879.3	-0.0000419
2877.4	-0.0000399
2875.5	-0.0000369
2873.6	-0.0000384
2871.6	-0.0000454
2869.7	-0.0000475
2867.8	-0.0000436
2865.8	-0.0000413
2863.9	-0.0000421
2862.0	-0.0000434
2860.1	-0.0000428
2858.1	-0.0000425
2856.2	-0.0000441
2854.3	-0.0000382
2852.3	-0.0000223
2850.4	-0.0000139
2848.5	-0.0000196
2846.6	-0.0000259
2844.6	-0.0000278
2842.7	-0.0000299
2840.8	-0.0000315
2838.8	-0.0000296
2836.9	-0.0000269
2835.0	-0.0000311
2833.1	-0.0000368
2831.1	-0.0000351
2829.2	-0.0000313
2827.3	-0.0000290
2825.3	-0.0000265
2823.4	-0.0000267
2821.5	-0.0000270
2819.6	-0.0000232
2817.6	-0.0000199
2815.7	-0.0000185
2813.8	-0.0000177
2811.8	-0.0000178
2809.9	-0.0000148
2808.0	-0.0000060
2806.1	-0.0000004
2804.1	-0.0000070
2802.2	-0.0000164
2800.3	-0.0000149
2798.3	-0.0000088
2796.4	-0.0000089
2794.5	-0.0000121
2792.6	-0.0000137
2790.6	-0.0000117
2788.7	-0.0000068
2786.8	-0.0000006
2784.8	0.0000065
2782.9	0.0000110
2781.0	0.0000095
2779.1	0.0000034
2777.1	0.0000002
2775.2	0.0000037
2773.3	0.0000075
2771.3	0.0000085
2769.4	0.0000112
2767.5	0.0000140
2765.6	0.0000119
2763.6	0.0000089
2761.7	0.0000105
2759.8	0.0000139
2757.8	0.0000112
2755.9	0.0000017
2754.0	-0.0000015
2752.1	0.0000080
2750.1	0.0000208
2748.2	0.0000278
2746.3	0.0000272
2744.3	0.0000200
2742.4	0.0000106
2740.5	0.0000073
2738.6	0.0000114
2736.6	0.0000182
2734.7	0.0000260
2732.8	0.0000289
2730.8	0.0000250
2728.9	0.0000241
2727.0	0.0000268
2725.1	0.0000260
2723.1	0.0000234
2721.2	0.0000253
2719.3	0.0000327
2717.3	0.0000393
2715.4	0.0000375
2713.5	0.0000286
2711.6	0.0000232
2709.6	0.0000255
2707.7	0.0000285
2705.8	0.0000276
2703.8	0.0000277
2701.9	0.0000316
2700.0	0.0000363
2698.1	0.0000398
2696.1	0.0000383
2694.2	0.0000316
2692.3	0.0000304
2690.3	0.0000359
2688.4	0.0000375
2686.5	0.0000354
2684.6	0.0000378
2682.6	0.0000468
2680.7	0.0000536
2678.8	0.0000512
2676.8	0.0000452
2674.9	0.0000419
2673.0	0.0000417
2671.1	0.0000454
2669.1	0.0000513
2667.2	0.0000521
2665.3	0.0000509
2663.3	0.0000551
2661.4	0.0000585
2659.5	0.0000552
2657.6	0.0000494
2655.6	0.0000450
2653.7	0.0000454
2651.8	0.0000503
2649.8	0.0000552
2647.9	0.0000576
2646.0	0.0000584
2644.1	0.0000620
2642.1	0.0000684
2640.2	0.0000711
2638.3	0.0000674
2636.3	0.0000592
2634.4	0.0000516
2632.5	0.0000487
2630.6	0.0000491
2628.6	0.0000499
2626.7	0.0000503
2624.8	0.0000517
2622.8	0.0000582
2620.9	0.0000674
2619.0	0.0000687
2617.1	0.0000626
2615.1	0.0000630
2613.2	0.0000677
2611.3	0.0000639
2609.3	0.0000567
2607.4	0.0000559
2605.5	0.0000588
2603.6	0.0000602
2601.6	0.0000572
2599.7	0.0000496
2597.8	0.0000483
2595.8	0.0000606
2593.9	0.0000708
2592.0	0.0000693
2590.1	0.0000692
2588.1	0.0000737
2586.2	0.0000777
2584.3	0.0000816
2582.3	0.0000829
2580.4	0.0000807
2578.5	0.0000787
2576.6	0.0000765
2574.6	0.0000744
2572.7	0.0000742
2570.8	0.0000744
2568.8	0.0000742
2566.9	0.0000742
2565.0	0.0000729
2563.1	0.0000728
2561.1	0.0000784
2559.2	0.0000855
2557.3	0.0000856
2555.3	0.0000791
2553.4	0.0000717
2551.5	0.0000664
2549.6	0.0000687
2547.6	0.0000795
2545.7	0.0000903
2543.8	0.0000957
2541.8	0.0000950
2539.9	0.0000902
2538.0	0.0000874
2536.1	0.0000903
2534.1	0.0000943
2532.2	0.0000970
2530.3	0.0000988
2528.3	0.0000991
2526.4	0.0001005
2524.5	0.0001041
2522.6	0.0001050
2520.6	0.0001010
2518.7	0.0000948
2516.8	0.0000922
2514.8	0.0000959
2512.9	0.0000998
2511.0	0.0000964
2509.1	0.0000895
2507.1	0.0000904
2505.2	0.0000971
2503.3	0.0000977
2501.3	0.0000933
2499.4	0.0000922
2497.5	0.0000935
2495.6	0.0000930
2493.6	0.0000919
2491.7	0.0000938
2489.8	0.0000967
2487.8	0.0000946
2485.9	0.0000886
2484.0	0.0000851
2482.1	0.0000856
2480.1	0.0000880
2478.2	0.0000897
2476.3	0.0000892
2474.3	0.0000891
2472.4	0.0000892
2470.5	0.0000869
2468.6	0.0000849
2466.6	0.0000877
2464.7	0.0000918
2462.8	0.0000937
2460.8	0.0000972
2458.9	0.0001019
2457.0	0.0001012
2455.1	0.0000943
2453.1	0.0000893
2451.2	0.0000901
2449.3	0.0000927
2447.3	0.0000955
2445.4	0.0001007
2443.5	0.0001086
2441.6	0.0001115
2439.6	0.0001048
2437.7	0.0000956
2435.8	0.0000880
2433.8	0.0000840
2431.9	0.0000896
2430.0	0.0001023
2428.1	0.0001099
2426.1	0.0001074
2424.2	0.0001000
2422.3	0.0000908
2420.3	0.0000854
2418.4	0.0000894
2416.5	0.0000965
2414.6	0.0000976
2412.6	0.0000932
2410.7	0.0000905
2408.8	0.0000941
2406.8	0.0000990
2404.9	0.0000999
2403.0	0.0000982
2401.1	0.0000985
2399.1	0.0000985
2397.2	0.0000953
2395.3	0.0000942
2393.3	0.0000992
2391.4	0.0001032
2389.5	0.0001015
2387.6	0.0000992
2385.6	0.0001009
2383.7	0.0001037
2381.8	0.0001028
2379.8	0.0001013
2377.9	0.0000999
2376.0	0.0000951
2374.1	0.0000934
2372.1	0.0000988
2370.2	0.0001047
2368.3	0.0001113
2366.3	0.0001198
2364.4	0.0001222
2362.5	0.0001180
2360.6	0.0001145
2358.6	0.0001128
2356.7	0.0001113
2354.8	0.0001102
2352.8	0.0001052
2350.9	0.0000951
2349.0	0.0000926
2347.1	0.0001044
2345.1	0.0001178
2343.2	0.0001218
2341.3	0.0001186
2339.3	0.0001158
2337.4	0.0001166
2335.5	0.0001182
2333.6	0.0001211
2331.6	0.0001242
2329.7	0.0001236
2327.8	0.0001213
2325.8	0.0001218
2323.9	0.0001262
2322.0	0.0001305
2320.1	0.0001303
2318.1	0.0001258
2316.2	0.0001192
2314.3	0.0001147
2312.3	0.0001156
2310.4	0.0001199
2308.5	0.0001238
2306.6	0.0001224
2304.6	0.0001153
2302.7	0.0001086
2300.8	0.0001070
2298.8	0.0001115
2296.9	0.0001163
2295.0	0.0001147
2293.1	0.0001104
2291.1	0.0001114
2289.2	0.0001145
2287.3	0.0001152
2285.3	0.0001178
2283.4	0.0001261
2281.5	0.0001332
2279.6	0.0001324
2277.6	0.0001264
2275.7	0.0001177
2273.8	0.0001119
2271.8	0.0001164
2269.9	0.0001270
2268.0	0.0001308
2266.1	0.0001235
2264.1	0.0001119
2262.2	0.0001058
2260.3	0.0001079
2258.3	0.0001136
2256.4	0.0001201
2254.5	0.0001227
2252.6	0.0001182
2250.6	0.0001135
2248.7	0.0001097
2246.8	0.0001023
2244.8	0.0000961
2242.9	0.0000957
2241.0	0.0000964
2239.1	0.0000955
2237.1	0.0000948
2235.2	0.0000932
2233.3	0.0000915
2231.3	0.0000918
2229.4	0.0000935
2227.5	0.0000977
2225.6	0.0001039
2223.6	0.0001075
2221.7	0.0001047
2219.8	0.0000986
2217.8	0.0000935
2215.9	0.0000911
2214.0	0.0000924
2212.1	0.0000991
2210.1	0.0001076
2208.2	0.0001110
2206.3	0.0001122
2204.3	0.0001171
2202.4	0.0001227
2200.5	0.0001229
2198.6	0.0001205
2196.6	0.0001206
2194.7	0.0001200
2192.8	0.0001182
2190.8	0.0001180
2188.9	0.0001236
2187.0	0.0001312
2185.1	0.0001358
2183.1	0.0001394
2181.2	0.0001408
2179.3	0.0001417
2177.3	0.0001438
2175.4	0.0001442
2173.5	0.0001415
2171.6	0.0001416
2169.6	0.0001456
2167.7	0.0001500
2165.8	0.0001569
2163.8	0.0001616
2161.9	0.0001620
2160.0	0.0001620
2158.1	0.0001647
2156.1	0.0001661
2154.2	0.0001629
2152.3	0.0001630
2150.3	0.0001680
2148.4	0.0001787
2146.5	0.0001921
2144.6	0.0002050
2142.6	0.0002142
2140.7	0.0002151
2138.8	0.0002164
2136.8	0.0002238
2134.9	0.0002392
2133.0	0.0002533
2131.1	0.0002614
2129.1	0.0002734
2127.2	0.0002945
2125.3	0.0003239
2123.3	0.0003536
2121.4	0.0003871
2119.5	0.0004282
2117.6	0.0004818
2115.6	0.0005545
2113.7	0.0006484
2111.8	0.0007750
2109.8	0.0009543
2107.9	0.0012228
2106.0	0.0016669
2104.1	0.0025589
2102.1	0.0047553
2100.2	0.0096107
2098.3	0.0158905
2096.3	0.0181792
2094.4	0.0140032
2092.5	0.0077252
2090.6	0.0033055
2088.6	0.0009323
2086.7	-0.0000054
2084.8	-0.0000028
2082.8	0.0002719
2080.9	0.0004213
2079.0	0.0004264
2077.1	0.0003771
2075.1	0.0003303
2073.2	0.0002996
2071.3	0.0002760
2069.3	0.0002621
2067.4	0.0002573
2065.5	0.0002593
2063.6	0.0002604
2061.6	0.0002553
2059.7	0.0002449
2057.8	0.0002272
2055.8	0.0002080
2053.9	0.0001905
2052.0	0.0001780
2050.1	0.0001677
2048.1	0.0001582
2046.2	0.0001506
2044.3	0.0001421
2042.3	0.0001300
2040.4	0.0001070
2038.5	0.0000794
2036.6	0.0000594
2034.6	0.0000512
2032.7	0.0000505
2030.8	0.0000503
2028.8	0.0000505
2026.9	0.0000487
2025.0	0.0000470
2023.1	0.0000488
2021.1	0.0000503
2019.2	0.0000496
2017.3	0.0000480
2015.3	0.0000448
2013.4	0.0000402
2011.5	0.0000413
2009.6	0.0000464
2007.6	0.0000474
2005.7	0.0000419
2003.8	0.0000336
2001.8	0.0000267
1999.9	0.0000205
1998.0	0.0000156
1996.1	0.0000158
1994.1	0.0000257
1992.2	0.0000366
1990.3	0.0000354
1988.3	0.0000255
1986.4	0.0000147
1984.5	0.0000102
1982.6	0.0000127
1980.6	0.0000168
1978.7	0.0000181
1976.8	0.0000149
1974.8	0.0000088
1972.9	0.0000038
1971.0	0.0000066
1969.1	0.0000176
1967.1	0.0000224
1965.2	0.0000139
1963.3	0.0000046
1961.4	0.0000011
1959.4	0.0000021
1957.5	0.0000108
1955.6	0.0000221
1953.6	0.0000249
1951.7	0.0000221
1949.8	0.0000238
1947.9	0.0000265
1945.9	0.0000305
1944.0	0.0000438
1942.1	0.0000490
1940.1	0.0000338
1938.2	0.0000194
1936.3	0.0000176
1934.4	0.0000202
1932.4	0.0000213
1930.5	0.0000179
1928.6	0.0000128
1926.6	0.0000203
1924.7	0.0000437
1922.8	0.0000622
1920.9	0.0000751
1918.9	0.0000905
1917.0	0.0000870
1915.1	0.0000687
1913.1	0.0000687
1911.2	0.0000839
1909.3	0.0000997
1907.4	0.0001186
1905.4	0.0001465
1903.5	0.0001833
1901.6	0.0002227
1899.6	0.0002622
1897.7	0.0003004
1895.8	0.0003313
1893.9	0.0003562
1891.9	0.0003941
1890.0	0.0004457
1888.1	0.0004835
1886.1	0.0005038
1884.2	0.0005220
1882.3	0.0005429
1880.4	0.0005701
1878.4	0.0006141
1876.5	0.0006922
1874.6	0.0008329
1872.6	0.0010722
1870.7	0.0013630
1868.8	0.0015146
1866.9	0.0014035
1864.9	0.0011381
1863.0	0.0008749
1861.1	0.0006665
1859.1	0.0005115
1857.2	0.0003992
1855.3	0.0003148
1853.4	0.0002448
1851.4	0.0001930
1849.5	0.0001724
1847.6	0.0001977
1845.6	0.0002502
1843.7	0.0002386
1841.8	0.0001431
1839.9	0.0000646
1837.9	0.0000377
1836.0	0.0000237
1834.1	0.0000252
1832.1	0.0000629
1830.2	0.0000973
1828.3	0.0000884
1826.4	0.0000713
1824.4	0.0000566
1822.5	0.0000231
1820.6	-0.0000056
1818.6	-0.0000108
1816.7	-0.0000054
1814.8	0.0000020
1812.9	0.0000152
1810.9	0.0000238
1809.0	0.0000115
1807.1	-0.0000089
1805.1	-0.0000097
1803.2	0.0000171
1801.3	0.0000467
1799.4	0.0000473
1797.4	0.0000345
1795.5	0.0000639
1793.6	0.0001269
1791.6	0.0001296
1789.7	0.0000582
1787.8	0.0000104
1785.9	0.0000163
1783.9	0.0000247
1782.0	0.0000175
1780.1	0.0000063
1778.1	0.0000022
1776.2	0.0000588
1774.3	0.0001928
1772.4	0.0002713
1770.4	0.0002093
1768.5	0.0001090
1766.6	0.0000464
1764.6	0.0000339
1762.7	0.0000624
1760.8	0.0000689
1758.9	0.0000518
1756.9	0.0000424
1755.0	0.0000545
1753.1	0.0001231
1751.1	0.0001880
1749.2	0.0001590
1747.3	0.0000881
1745.4	0.0000551
1743.4	0.0000675
1741.5	0.0001049
1739.6	0.0001263
1737.6	0.0001802
1735.7	0.0003349
1733.8	0.0004038
1731.9	0.0002508
1729.9	0.0000730
1728.0	-0.0000006
1726.1	-0.0000180
1724.1	-0.0000163
1722.2	0.0000243
1720.3	0.0001796
1718.4	0.0003825
1716.4	0.0004045
1714.5	0.0002307
1712.6	0.0000658
1710.6	0.0000080
1708.7	0.0000379
1706.8	0.0001011
1704.9	0.0001569
1702.9	0.0002822
1701.0	0.0004519
1699.1	0.0004957
1697.1	0.0004459
1695.2	0.0003371
1693.3	0.0001420
1691.4	0.0000126
1689.4	0.0000308
1687.5	0.0002093
1685.6	0.0004586
1683.6	0.0004639
1681.7	0.0002128
1679.8	0.0000299
1677.9	0.0000485
1675.9	0.0001374
1674.0	0.0001496
1672.1	0.0001387
1670.1	0.0001606
1668.2	0.0001188
1666.3	0.0000419
1664.4	0.0000398
1662.4	0.0000508
1660.5	0.0000079
1658.6	-0.0000044
1656.6	0.0001903
1654.7	0.0005978
1652.8	0.0007718
1650.9	0.0005072
1648.9	0.0002876
1647.0	0.0002909
1645.1	0.0002174
1643.1	0.0000466
1641.2	-0.0000340
1639.3	0.0000392
1637.4	0.0002177
1635.4	0.0002955
1633.5	0.0001528
1631.6	-0.0000095
1629.6	-0.0000433
1627.7	-0.0000184
1625.8	0.0000180
1623.9	0.0000461
1621.9	0.0000327
1620.0	0.0000747
1618.1	0.0002187
1616.1	0.0002423
1614.2	0.0000772
1612.3	-0.0000498
1610.4	-0.0000682
1608.4	-0.0000691
1606.5	-0.0000793
1604.6	-0.0000840
1602.6	-0.0000864
1600.7	-0.0000940
1598.8	-0.0000996
1596.9	-0.0000979
1594.9	-0.0000929
1593.0	-0.0000893
1591.1	-0.0000848
1589.1	-0.0000813
1587.2	-0.0000821
1585.3	-0.0000874
1583.4	-0.0000898
1581.4	-0.0000696
1579.5	0.0000471
1577.6	0.0002534
1575.6	0.0003064
1573.7	0.0001588
1571.8	0.0000928
1569.9	0.0001276
1567.9	0.0000916
1566.0	0.0000279
1564.1	0.0000602
1562.1	0.0002969
1560.2	0.0006517
1558.3	0.0007444
1556.4	0.0005127
1554.4	0.0002733
1552.5	0.0001373
1550.6	0.0000638
1548.6	0.0000475
1546.7	0.0001031
1544.8	0.0002494
1542.9	0.0004758
1540.9	0.0006658
1539.0	0.0005941
1537.1	0.0003294
1535.1	0.0001897
1533.2	0.0001676
1531.3	0.0001088
1529.4	0.0000749
1527.4	0.0001169
1525.5	0.0001975
1523.6	0.0003291
1521.6	0.0004262
1519.7	0.0003606
1517.8	0.0002224
1515.9	0.0001292
1513.9	0.0000861
1512.0	0.0001120
1510.1	0.0002701
1508.1	0.0005387
1506.2	0.0006298
1504.3	0.0003881
1502.4	0.0001282
1500.4	0.0000890
1498.5	0.0001707
1496.6	0.0001996
1494.6	0.0001318
1492.7	0.0000901
1490.8	0.0001255
1488.9	0.0001341
1486.9	0.0000763
1485.0	0.0000159
1483.1	-0.0000053
1481.1	-0.0000017
1479.2	0.0000192
1477.3	0.0000787
1475.4	0.0001762
1473.4	0.0002468
1471.5	0.0001993
1469.6	0.0000839
1467.6	0.0000552
1465.7	0.0001013
1463.8	0.0000933
1461.9	0.0000732
1459.9	0.0002105
1458.0	0.0004279
1456.1	0.0004221
1454.1	0.0001991
1452.2	0.0000402
1450.3	0.0000231
1448.4	0.0000429
1446.4	0.0000253
1444.5	-0.0000148
1442.6	-0.0000283
1440.6	0.0000202
1438.7	0.0001420
1436.8	0.0002213
1434.9	0.0001512
1432.9	0.0000498
1431.0	0.0000258
1429.1	0.0000268
1427.1	0.0000195
1425.2	0.0000211
1423.3	0.0000565
1421.4	0.0001571
1419.4	0.0002355
1417.5	0.0001734
1415.6	0.0000579
1413.6	0.0000085
1411.7	0.0000056
1409.8	0.0000099
1407.9	0.0000225
1405.9	0.0000429
1404.0	0.0000491
1402.1	0.0000576
1400.1	0.0000932
1398.2	0.0001281
1396.3	0.0001486
1394.4	0.0001371
1392.4	0.0000813
1390.5	0.0000496
1388.6	0.0000672
1386.6	0.0000619
1384.7	0.0000183
1382.8	-0.0000070
1380.9	-0.0000007
1378.9	0.0000135
1377.0	0.0000330
1375.1	0.0000524
1373.1	0.0000483
1371.2	0.0000297
1369.3	0.0000229
1367.4	0.0000235
1365.4	0.0000312
1363.5	0.0000491
1361.6	0.0000527
1359.6	0.0000352
1357.7	0.0000230
1355.8	0.0000245
1353.9	0.0000234
1351.9	0.0000182
1350.0	0.0000165
1348.1	0.0000147
1346.1	0.0000126
1344.2	0.0000197
1342.3	0.0000430
1340.4	0.0000707
1338.4	0.0000765
1336.5	0.0000581
1334.6	0.0000395
1332.6	0.0000314
1330.7	0.0000258
1328.8	0.0000190
1326.9	0.0000148
1324.9	0.0000179
1323.0	0.0000259
1321.1	0.0000324
1319.1	0.0000313
1317.2	0.0000228
1315.3	0.0000175
1313.4	0.0000187
1311.4	0.0000217
1309.5	0.0000230
1307.6	0.0000184
1305.6	0.0000092
1303.7	0.0000035
1301.8	0.0000067
1299.9	0.0000175
1297.9	0.0000283
1296.0	0.0000320
1294.1	0.0000305
1292.1	0.0000292
1290.2	0.0000315
1288.3	0.0000345
1286.4	0.0000306
1284.4	0.0000235
1282.5	0.0000225
1280.6	0.0000252
1278.6	0.0000237
1276.7	0.0000171
1274.8	0.0000120
1272.9	0.0000149
1270.9	0.0000233
1269.0	0.0000324
1267.1	0.0000423
1265.1	0.0000489
1263.2	0.0000485
1261.3	0.0000506
1259.4	0.0000594
1257.4	0.0000618
1255.5	0.0000502
1253.6	0.0000380
1251.6	0.0000387
1249.7	0.0000449
1247.8	0.0000458
1245.9	0.0000435
1243.9	0.0000429
1242.0	0.0000431
1240.1	0.0000426
1238.1	0.0000406
1236.2	0.0000353
1234.3	0.0000299
1232.4	0.0000305
1230.4	0.0000362
1228.5	0.0000447
1226.6	0.0000518
1224.6	0.0000506
1222.7	0.0000457
1220.8	0.0000465
1218.9	0.0000462
1216.9	0.0000425
1215.0	0.0000440
1213.1	0.0000444
1211.1	0.0000388
1209.2	0.0000346
1207.3	0.0000342
1205.4	0.0000361
1203.4	0.0000397
1201.5	0.0000462
1199.6	0.0000542
1197.6	0.0000544
1195.7	0.0000473
1193.8	0.0000426
1191.9	0.0000388
1189.9	0.0000359
1188.0	0.0000398
1186.1	0.0000411
1184.1	0.0000277
1182.2	0.0000137
1180.3	0.0000265
1178.4	0.0000564
1176.4	0.0000677
1174.5	0.0000584
1172.6	0.0000464
1170.6	0.0000367
1168.7	0.0000280
1166.8	0.0000210
1164.9	0.0000176
1162.9	0.0000173
1161.0	0.0000177
1159.1	0.0000204
1157.1	0.0000277
1155.2	0.0000347
1153.3	0.0000352
1151.4	0.0000339
1149.4	0.0000327
1147.5	0.0000260
1145.6	0.0000201
1143.6	0.0000240
1141.7	0.0000330
1139.8	0.0000390
1137.9	0.0000408
1135.9	0.0000401
1134.0	0.0000391
1132.1	0.0000381
1130.1	0.0000356
1128.2	0.0000328
1126.3	0.0000319
1124.4	0.0000308
1122.4	0.0000308
1120.5	0.0000343
1118.6	0.0000371
1116.6	0.0000345
1114.7	0.0000334
1112.8	0.0000376
1110.9	0.0000374
1108.9	0.0000305
1107.0	0.0000255
1105.1	0.0000218
1103.1	0.0000168
1101.2	0.0000137
1099.3	0.0000114
1097.4	0.0000067
1095.4	0.0000035
1093.5	0.0000062
1091.6	0.0000151
1089.6	0.0000202
1087.7	0.0000130
1085.8	0.0000055
1083.9	0.0000076
1081.9	0.0000075
1080.0	-0.0000014
1078.1	-0.0000092
1076.1	-0.0000060
1074.2	0.0000101
1072.3	0.0000256
1070.4	0.0000281
1068.4	0.0000252
1066.5	0.0000246
1064.6	0.0000228
1062.6	0.0000217
1060.7	0.0000235
1058.8	0.0000241
1056.9	0.0000211
1054.9	0.0000179
1053.0	0.0000167
1051.1	0.0000137
1049.1	0.0000081
1047.2	0.0000057
1045.3	0.0000075
1043.4	0.0000097
1041.4	0.0000089
1039.5	0.0000052
1037.6	0.0000011
1035.6	-0.0000041
1033.7	-0.0000090
1031.8	-0.0000051
1029.9	0.0000071
1027.9	0.0000169
1026.0	0.0000185
1024.1	0.0000158
1022.1	0.0000152
1020.2	0.0000166
1018.3	0.0000187
1016.4	0.0000221
1014.4	0.0000260
1012.5	0.0000296
1010.6	0.0000265
1008.6	0.0000191
1006.7	0.0000213
1004.8	0.0000303
1002.9	0.0000296
1000.9	0.0000166
999.0	0.0000037
997.1	-0.0000009
995.1	0.0000026
993.2	0.0000090
991.3	0.0000122
989.4	0.0000146
987.4	0.0000203
985.5	0.0000215
983.6	0.0000176
981.6	0.0000190
979.7	0.0000266
977.8	0.0000343
975.9	0.0000368
973.9	0.0000288
972.0	0.0000138
970.1	0.0000012
968.1	-0.0000040
966.2	-0.0000047
964.3	-0.0000021
962.4	0.0000054
960.4	0.0000125
958.5	0.0000116
956.6	0.0000081
954.6	0.0000092
952.7	0.0000098
950.8	0.0000031
948.9	-0.0000102
946.9	-0.0000169
945.0	-0.0000090
943.1	-0.0000000
941.1	0.0000007
939.2	0.0000016
937.3	0.0000050
935.4	-0.0000019
933.4	-0.0000183
931.5	-0.0000306
929.6	-0.0000361
927.6	-0.0000362
925.7	-0.0000335
923.8	-0.0000319
921.9	-0.0000248
919.9	-0.0000144
918.0	-0.0000193
916.1	-0.0000373
914.1	-0.0000500
912.2	-0.0000520
910.3	-0.0000461
908.4	-0.0000367
906.4	-0.0000292
904.5	-0.0000279
902.6	-0.0000341
900.6	-0.0000361
898.7	-0.0000275
896.8	-0.0000211
894.9	-0.0000206
892.9	-0.0000138
891.0	-0.0000057
889.1	-0.0000041
887.1	-0.0000049
885.2	-0.0000089
883.3	-0.0000102
881.4	-0.0000084
879.4	-0.0000105
877.5	-0.0000057
875.6	0.0000057
873.6	0.0000058
871.7	-0.0000045
869.8	-0.0000063
867.9	-0.0000012
865.9	-0.0000082
864.0	-0.0000252
862.1	-0.0000383
860.1	-0.0000406
858.2	-0.0000379
856.3	-0.0000355
854.4	-0.0000157
852.4	0.0000275
850.5	0.0000588
848.6	0.0000570
846.6	0.0000541
844.7	0.0000737
842.8	0.0000864
840.9	0.0000673
838.9	0.0000467
837.0	0.0000664
835.1	0.0000895
833.1	0.0000584
831.2	0.0000206
829.3	0.0000325
827.4	0.0000591
825.4	0.0000761
823.5	0.0001016
821.6	0.0001265
819.6	0.0001250
817.7	0.0000964
815.8	0.0000586
813.9	0.0000400
811.9	0.0000594
810.0	0.0001018
808.1	0.0001389
806.1	0.0001519
804.2	0.0001384
802.3	0.0001180
800.4	0.0001082
798.4	0.0001119
796.5	0.0001223
794.6	0.0001369
792.6	0.0001532
790.7	0.0001442
788.8	0.0001177
786.9	0.0001114
784.9	0.0001196
783.0	0.0001332
781.1	0.0001464
779.1	0.0001495
777.2	0.0001656
775.3	0.0001925
773.4	0.0002112
771.4	0.0002455
769.5	0.0002848
767.6	0.0002619
765.6	0.0001928
763.7	0.0001650
761.8	0.0001895
759.9	0.0002157
757.9	0.0002218
756.0	0.0002113
754.1	0.0001844
752.1	0.0001575
750.2	0.0001361
748.3	0.0001053
746.4	0.0000908
744.4	0.0001036
742.5	0.0001038
740.6	0.0000836
738.6	0.0000656
736.7	0.0000275
734.8	-0.0000496
732.9	-0.0000783
730.9	0.0000005
729.0	0.0000986
727.1	0.0000954
725.1	-0.0000687
723.2	-0.0003446
721.3	-0.0005361
719.4	-0.0005545
717.4	-0.0005691
715.5	-0.0006198
713.6	-0.0005605
711.6	-0.0004197
709.7	-0.0003536
707.8	-0.0004486
705.9	-0.0006496
703.9	-0.0007565
702.0	-0.0006638
700.1	-0.0005658
698.1	-0.0006454
696.2	-0.0007911
694.3	-0.0007807
692.4	-0.0006518
690.4	-0.0006128
688.5	-0.0006100
686.6	-0.0006018
684.6	-0.0006456
682.7	-0.0006099
680.8	-0.0005158
678.9	-0.0004801
676.9	-0.0004916
675.0	-0.0005165
673.1	-0.0005009
671.1	-0.0004317
669.2	-0.0003505
667.3	-0.0003272
665.4	-0.0003200
663.4	-0.0001811
661.5	-0.0000259
659.6	-0.0001194
657.6	-0.0003608
655.7	-0.0004172
653.8	-0.0002694
651.9	-0.0001913
649.9	-0.0003154
648.0	-0.0004856
646.1	-0.0005504
644.1	-0.0005459
642.2	-0.0005539
640.3	-0.0005896
638.4	-0.0006229
636.4	-0.0006398
634.5	-0.0006212
632.6	-0.0005929
630.6	-0.0005997
628.7	-0.0006216
626.8	-0.0006638
624.9	-0.0006625
622.9	-0.0006020
621.0	-0.0006293
619.1	-0.0007057
617.1	-0.0007166
615.2	-0.0007136
613.3	-0.0006941
611.4	-0.0006251
609.4	-0.0005328
607.5	-0.0004144
605.6	-0.0003755
603.6	-0.0004790
601.7	-0.0005557
599.8	-0.0006222
