3997.9	-0.0000209
3996.0	-0.0000136
3994.1	-0.0000102
3992.1	-0.0000162
3990.2	-0.0000198
3988.3	-0.0000131
3986.3	-0.0000025
3984.4	0.0000033
3982.5	-0.0000013
3980.6	-0.0000135
3978.6	-0.0000199
3976.7	-0.0000112
3974.8	0.0000024
3972.8	0.0000037
3970.9	0.0000013
3969.0	0.0000083
3967.1	0.0000142
3965.1	0.0000161
3963.2	0.0000221
3961.3	0.0000246
3959.3	0.0000206
3957.4	0.0000200
3955.5	0.0000263
3953.6	0.0000470
3951.6	0.0000901
3949.7	0.0001332
3947.8	0.0001384
3945.8	0.0001269
3943.9	0.0001331
3942.0	0.0001156
3940.1	0.0000651
3938.1	0.0000430
3936.2	0.0000773
3934.3	0.0001551
3932.3	0.0002076
3930.4	0.0001731
3928.5	0.0001137
3926.6	0.0001081
3924.6	0.0001323
3922.7	0.0001632
3920.8	0.0002295
3918.8	0.0002882
3916.9	0.0002510
3915.0	0.0001368
3913.1	0.0000501
3911.1	0.0000331
3909.2	0.0000877
3907.3	0.0002717
3905.3	0.0005435
3903.4	0.0007152
3901.5	0.0006992
3899.6	0.0005379
3897.6	0.0003050
3895.7	0.0001757
3893.8	0.0002761
3891.8	0.0004097
3889.9	0.0004095
3888.0	0.0004749
3886.1	0.0006004
3884.1	0.0005508
3882.2	0.0004724
3880.3	0.0004423
3878.3	0.0003326
3876.4	0.0002896
3874.5	0.0004002
3872.6	0.0006424
3870.6	0.0008876
3868.7	0.0008725
3866.8	0.0007638
3864.8	0.0007512
3862.9	0.0006331
3861.0	0.0004028
3859.1	0.0003749
3857.1	0.0009887
3855.2	0.0021077
3853.3	0.0025295
3851.3	0.0016955
3849.4	0.0006445
3847.5	0.0002057
3845.6	0.0002331
3843.6	0.0003928
3841.7	0.0006461
3839.8	0.0010360
3837.8	0.0012448
3835.9	0.0010345
3834.0	0.0007154
3832.1	0.0005172
3830.1	0.0003646
3828.2	0.0002725
3826.3	0.0002850
3824.3	0.0004716
3822.4	0.0007908
3820.5	0.0009126
3818.6	0.0009063
3816.6	0.0009398
3814.7	0.0006911
3812.8	0.0002742
3810.8	0.0002152
3808.9	0.0005486
3807.0	0.0007943
3805.1	0.0008136
3803.1	0.0009813
3801.2	0.0010773
3799.3	0.0007774
3797.3	0.0004669
3795.4	0.0002953
3793.5	0.0001349
3791.6	0.0000515
3789.6	0.0000461
3787.7	0.0000655
3785.8	0.0000943
3783.8	0.0001227
3781.9	0.0001947
3780.0	0.0002696
3778.1	0.0002217
3776.1	0.0001068
3774.2	0.0000966
3772.3	0.0002412
3770.3	0.0003989
3768.4	0.0004211
3766.5	0.0003546
3764.6	0.0002772
3762.6	0.0002787
3760.7	0.0004131
3758.8	0.0004813
3756.8	0.0004693
3754.9	0.0007340
3753.0	0.0013678
3751.1	0.0018671
3749.1	0.0018444
3747.2	0.0018670
3745.3	0.0021476
3743.3	0.0017854
3741.4	0.0009105
3739.5	0.0006100
3737.6	0.0008995
3735.6	0.0011431
3733.7	0.0010822
3731.8	0.0007798
3729.8	0.0004629
3727.9	0.0003648
3726.0	0.0004049
3724.1	0.0003869
3722.1	0.0003324
3720.2	0.0002681
3718.3	0.0001981
3716.3	0.0002664
3714.4	0.0006297
3712.5	0.0010070
3710.6	0.0009086
3708.6	0.0004860
3706.7	0.0001921
3704.8	0.0001765
3702.8	0.0002990
3700.9	0.0002985
3699.0	0.0001642
3697.1	0.0000762
3695.1	0.0001356
3693.2	0.0004020
3691.3	0.0008598
3689.3	0.0011519
3687.4	0.0008909
3685.5	0.0003704
3683.6	0.0001118
3681.6	0.0001442
3679.7	0.0004020
3677.8	0.0009637
3675.8	0.0014117
3673.9	0.0013559
3672.0	0.0012284
3670.1	0.0011070
3668.1	0.0006695
3666.2	0.0002179
3664.3	0.0000465
3662.3	0.0000333
3660.4	0.0001286
3658.5	0.0003964
3656.6	0.0006122
3654.6	0.0005985
3652.7	0.0007682
3650.8	0.0012269
3648.8	0.0013454
3646.9	0.0009027
3645.0	0.0003903
3643.1	0.0001399
3641.1	0.0000652
3639.2	0.0000437
3637.3	0.0000751
3635.3	0.0001632
3633.4	0.0003582
3631.5	0.0007978
3629.6	0.0011696
3627.6	0.0009331
3625.7	0.0003891
3623.8	0.0001630
3621.8	0.0003015
3619.9	0.0004976
3618.0	0.0005027
3616.1	0.0004208
3614.1	0.0004479
3612.2	0.0005413
3610.3	0.0006027
3608.3	0.0005279
3606.4	0.0003054
3604.5	0.0001271
3602.6	0.0000990
3600.6	0.0001304
3598.7	0.0001541
3596.8	0.0001820
3594.8	0.0001979
3592.9	0.0001781
3591.0	0.0002138
3589.1	0.0003501
3587.1	0.0003950
3585.2	0.0002505
3583.3	0.0000917
3581.3	0.0000345
3579.4	0.0000307
3577.5	0.0000293
3575.6	0.0000202
3573.6	0.0000143
3571.7	0.0000752
3569.8	0.0002590
3567.8	0.0004319
3565.9	0.0003955
3564.0	0.0002131
3562.1	0.0000813
3560.1	0.0000390
3558.2	0.0000290
3556.3	0.0000324
3554.3	0.0000573
3552.4	0.0000751
3550.5	0.0000690
3548.6	0.0000905
3546.6	0.0001260
3544.7	0.0001004
3542.8	0.0000311
3540.8	-0.0000130
3538.9	-0.0000124
3537.0	0.0000028
3535.1	0.0000001
3533.1	-0.0000097
3531.2	0.0000055
3529.3	0.0000404
3527.3	0.0000611
3525.4	0.0000578
3523.5	0.0000372
3521.6	0.0000044
3519.6	-0.0000233
3517.7	-0.0000352
3515.8	-0.0000424
3513.8	-0.0000452
3511.9	-0.0000302
3510.0	-0.0000085
3508.1	-0.0000021
3506.1	0.0000067
3504.2	0.0000257
3502.3	0.0000189
3500.3	-0.0000095
3498.4	-0.0000203
3496.5	-0.0000182
3494.6	-0.0000255
3492.6	-0.0000390
3490.7	-0.0000425
3488.8	-0.0000340
3486.8	-0.0000280
3484.9	-0.0000265
3483.0	-0.0000162
3481.1	-0.0000062
3479.1	-0.0000150
3477.2	-0.0000332
3475.3	-0.0000416
3473.3	-0.0000371
3471.4	-0.0000287
3469.5	-0.0000233
3467.6	-0.0000229
3465.6	-0.0000295
3463.7	-0.0000373
3461.8	-0.0000400
3459.8	-0.0000422
3457.9	-0.0000461
3456.0	-0.0000512
3454.1	-0.0000617
3452.1	-0.0000708
3450.2	-0.0000593
3448.3	-0.0000325
3446.3	-0.0000203
3444.4	-0.0000252
3442.5	-0.0000297
3440.6	-0.0000351
3438.6	-0.0000387
3436.7	-0.0000310
3434.8	-0.0000230
3432.8	-0.0000246
3430.9	-0.0000324
3429.0	-0.0000410
3427.1	-0.0000451
3425.1	-0.0000396
3423.2	-0.0000227
3421.3	-0.0000105
3419.3	-0.0000205
3417.4	-0.0000420
3415.5	-0.0000543
3413.6	-0.0000531
3411.6	-0.0000432
3409.7	-0.0000339
3407.8	-0.0000331
3405.8	-0.0000322
3403.9	-0.0000227
3402.0	-0.0000194
3400.1	-0.0000263
3398.1	-0.0000315
3396.2	-0.0000360
3394.3	-0.0000356
3392.3	-0.0000256
3390.4	-0.0000258
3388.5	-0.0000432
3386.6	-0.0000534
3384.6	-0.0000438
3382.7	-0.0000312
3380.8	-0.0000312
3378.8	-0.0000406
3376.9	-0.0000478
3375.0	-0.0000500
3373.1	-0.0000454
3371.1	-0.0000307
3369.2	-0.0000201
3367.3	-0.0000282
3365.3	-0.0000433
3363.4	-0.0000517
3361.5	-0.0000518
3359.6	-0.0000428
3357.6	-0.0000264
3355.7	-0.0000182
3353.8	-0.0000265
3351.8	-0.0000396
3349.9	-0.0000511
3348.0	-0.0000629
3346.1	-0.0000699
3344.1	-0.0000630
3342.2	-0.0000466
3340.3	-0.0000409
3338.3	-0.0000515
3336.4	-0.0000592
3334.5	-0.0000546
3332.6	-0.0000510
3330.6	-0.0000536
3328.7	-0.0000498
3326.8	-0.0000452
3324.8	-0.0000542
3322.9	-0.0000676
3321.0	-0.0000722
3319.1	-0.0000698
3317.1	-0.0000622
3315.2	-0.0000553
3313.3	-0.0000579
3311.3	-0.0000606
3309.4	-0.0000484
3307.5	-0.0000308
3305.6	-0.0000293
3303.6	-0.0000429
3301.7	-0.0000506
3299.8	-0.0000478
3297.8	-0.0000510
3295.9	-0.0000614
3294.0	-0.0000579
3292.1	-0.0000412
3290.1	-0.0000328
3288.2	-0.0000362
3286.3	-0.0000407
3284.3	-0.0000432
3282.4	-0.0000442
3280.5	-0.0000393
3278.6	-0.0000293
3276.6	-0.0000221
3274.7	-0.0000166
3272.8	-0.0000123
3270.8	-0.0000121
3268.9	-0.0000111
3267.0	-0.0000058
3265.1	-0.0000042
3263.1	-0.0000118
3261.2	-0.0000172
3259.3	-0.0000118
3257.3	-0.0000064
3255.4	-0.0000079
3253.5	-0.0000116
3251.6	-0.0000161
3249.6	-0.0000186
3247.7	-0.0000111
3245.8	-0.0000017
3243.8	-0.0000048
3241.9	-0.0000088
3240.0	-0.0000026
3238.1	0.0000109
3236.1	0.0000268
3234.2	0.0000376
3232.3	0.0000374
3230.3	0.0000347
3228.4	0.0000319
3226.5	0.0000262
3224.6	0.0000271
3222.6	0.0000339
3220.7	0.0000347
3218.8	0.0000350
3216.8	0.0000426
3214.9	0.0000480
3213.0	0.0000437
3211.1	0.0000386
3209.1	0.0000395
3207.2	0.0000423
3205.3	0.0000432
3203.3	0.0000420
3201.4	0.0000387
3199.5	0.0000365
3197.6	0.0000413
3195.6	0.0000484
3193.7	0.0000462
3191.8	0.0000361
3189.8	0.0000302
3187.9	0.0000302
3186.0	0.0000299
3184.1	0.0000295
3182.1	0.0000314
3180.2	0.0000344
3178.3	0.0000326
3176.3	0.0000286
3174.4	0.0000273
3172.5	0.0000253
3170.6	0.0000244
3168.6	0.0000263
3166.7	0.0000259
3164.8	0.0000230
3162.8	0.0000222
3160.9	0.0000290
3159.0	0.0000408
3157.1	0.0000492
3155.1	0.0000502
3153.2	0.0000487
3151.3	0.0000488
3149.3	0.0000456
3147.4	0.0000377
3145.5	0.0000337
3143.6	0.0000335
3141.6	0.0000348
3139.7	0.0000429
3137.8	0.0000522
3135.8	0.0000564
3133.9	0.0000573
3132.0	0.0000465
3130.1	0.0000268
3128.1	0.0000173
3126.2	0.0000191
3124.3	0.0000227
3122.3	0.0000311
3120.4	0.0000418
3118.5	0.0000447
3116.6	0.0000393
3114.6	0.0000296
3112.7	0.0000179
3110.8	0.0000074
3108.8	0.0000009
3106.9	-0.0000061
3105.0	-0.0000154
3103.1	-0.0000161
3101.1	-0.0000094
3099.2	-0.0000113
3097.3	-0.0000220
3095.3	-0.0000287
3093.4	-0.0000279
3091.5	-0.0000233
3089.6	-0.0000182
3087.6	-0.0000172
3085.7	-0.0000184
3083.8	-0.0000176
3081.8	-0.0000179
3079.9	-0.0000226
3078.0	-0.0000355
3076.1	-0.0000488
3074.1	-0.0000502
3072.2	-0.0000461
3070.3	-0.0000386
3068.3	-0.0000293
3066.4	-0.0000287
3064.5	-0.0000332
3062.6	-0.0000375
3060.6	-0.0000427
3058.7	-0.0000427
3056.8	-0.0000389
3054.8	-0.0000405
3052.9	-0.0000462
3051.0	-0.0000510
3049.1	-0.0000522
3047.1	-0.0000497
3045.2	-0.0000495
3043.3	-0.0000583
3041.3	-0.0000753
3039.4	-0.0000887
3037.5	-0.0000886
3035.6	-0.0000814
3033.6	-0.0000737
3031.7	-0.0000691
3029.8	-0.0000720
3027.8	-0.0000766
3025.9	-0.0000762
3024.0	-0.0000720
3022.1	-0.0000696
3020.1	-0.0000782
3018.2	-0.0000927
3016.3	-0.0000943
3014.3	-0.0000775
3012.4	-0.0000566
3010.5	-0.0000498
3008.6	-0.0000577
3006.6	-0.0000650
3004.7	-0.0000656
3002.8	-0.0000677
3000.8	-0.0000727
2998.9	-0.0000747
2997.0	-0.0000747
2995.1	-0.0000727
2993.1	-0.0000676
2991.2	-0.0000686
2989.3	-0.0000780
2987.3	-0.0000850
2985.4	-0.0000853
2983.5	-0.0000795
2981.6	-0.0000691
2979.6	-0.0000627
2977.7	-0.0000659
2975.8	-0.0000690
2973.8	-0.0000645
2971.9	-0.0000608
2970.0	-0.0000645
2968.1	-0.0000685
2966.1	-0.0000680
2964.2	-0.0000668
2962.3	-0.0000686
2960.3	-0.0000697
2958.4	-0.0000643
2956.5	-0.0000551
2954.6	-0.0000513
2952.6	-0.0000548
2950.7	-0.0000589
2948.8	-0.0000610
2946.8	-0.0000620
2944.9	-0.0000566
2943.0	-0.0000470
2941.1	-0.0000459
2939.1	-0.0000563
2937.2	-0.0000686
2935.3	-0.0000712
2933.3	-0.0000631
2931.4	-0.0000542
2929.5	-0.0000485
2927.6	-0.0000454
2925.6	-0.0000499
2923.7	-0.0000615
2921.8	-0.0000659
2919.8	-0.0000604
2917.9	-0.0000530
2916.0	-0.0000497
2914.1	-0.0000539
2912.1	-0.0000629
2910.2	-0.0000696
2908.3	-0.0000704
2906.3	-0.0000686
2904.4	-0.0000681
2902.5	-0.0000684
2900.6	-0.0000713
2898.6	-0.0000762
2896.7	-0.0000786
2894.8	-0.0000783
2892.8	-0.0000773
2890.9	-0.0000761
2889.0	-0.0000759
2887.1	-0.0000777
2885.1	-0.0000807
2883.2	-0.0000809
2881.3	-0.0000774
2879.3	-0.0000747
2877.4	-0.0000743
2875.5	-0.0000715
2873.6	-0.0000658
2871.6	-0.0000595
2869.7	-0.0000560
2867.8	-0.0000605
2865.8	-0.0000696
2863.9	-0.0000742
2862.0	-0.0000739
2860.1	-0.0000727
2858.1	-0.0000729
2856.2	-0.0000749
2854.3	-0.0000728
2852.3	-0.0000657
2850.4	-0.0000644
2848.5	-0.0000674
2846.6	-0.0000631
2844.6	-0.0000577
2842.7	-0.0000604
2840.8	-0.0000644
2838.8	-0.0000622
2836.9	-0.0000621
2835.0	-0.0000733
2833.1	-0.0000829
2831.1	-0.0000781
2829.2	-0.0000705
2827.3	-0.0000693
2825.3	-0.0000711
2823.4	-0.0000753
2821.5	-0.0000826
2819.6	-0.0000889
2817.6	-0.0000915
2815.7	-0.0000883
2813.8	-0.0000812
2811.8	-0.0000777
2809.9	-0.0000795
2808.0	-0.0000826
2806.1	-0.0000868
2804.1	-0.0000928
2802.2	-0.0000964
2800.3	-0.0000898
2798.3	-0.0000799
2796.4	-0.0000801
2794.5	-0.0000837
2792.6	-0.0000788
2790.6	-0.0000701
2788.7	-0.0000657
2786.8	-0.0000659
2784.8	-0.0000690
2782.9	-0.0000743
2781.0	-0.0000770
2779.1	-0.0000772
2777.1	-0.0000783
2775.2	-0.0000787
2773.3	-0.0000793
2771.3	-0.0000825
2769.4	-0.0000827
2767.5	-0.0000789
2765.6	-0.0000752
2763.6	-0.0000711
2761.7	-0.0000712
2759.8	-0.0000773
2757.8	-0.0000809
2755.9	-0.0000806
2754.0	-0.0000774
2752.1	-0.0000700
2750.1	-0.0000629
2748.2	-0.0000597
2746.3	-0.0000602
2744.3	-0.0000650
2742.4	-0.0000718
2740.5	-0.0000759
2738.6	-0.0000780
2736.6	-0.0000788
2734.7	-0.0000740
2732.8	-0.0000676
2730.8	-0.0000665
2728.9	-0.0000667
2727.0	-0.0000675
2725.1	-0.0000720
2723.1	-0.0000749
2721.2	-0.0000742
2719.3	-0.0000735
2717.3	-0.0000742
2715.4	-0.0000781
2713.5	-0.0000822
2711.6	-0.0000789
2709.6	-0.0000721
2707.7	-0.0000719
2705.8	-0.0000765
2703.8	-0.0000783
2701.9	-0.0000751
2700.0	-0.0000705
2698.1	-0.0000684
2696.1	-0.0000702
2694.2	-0.0000758
2692.3	-0.0000776
2690.3	-0.0000743
2688.4	-0.0000756
2686.5	-0.0000786
2684.6	-0.0000742
2682.6	-0.0000639
2680.7	-0.0000549
2678.8	-0.0000525
2676.8	-0.0000586
2674.9	-0.0000681
2673.0	-0.0000719
2671.1	-0.0000679
2669.1	-0.0000641
2667.2	-0.0000679
2665.3	-0.0000700
2663.3	-0.0000605
2661.4	-0.0000508
2659.5	-0.0000531
2657.6	-0.0000642
2655.6	-0.0000737
2653.7	-0.0000705
2651.8	-0.0000568
2649.8	-0.0000484
2647.9	-0.0000510
2646.0	-0.0000524
2644.1	-0.0000478
2642.1	-0.0000444
2640.2	-0.0000444
2638.3	-0.0000458
2636.3	-0.0000482
2634.4	-0.0000509
2632.5	-0.0000543
2630.6	-0.0000609
2628.6	-0.0000663
2626.7	-0.0000636
2624.8	-0.0000564
2622.8	-0.0000508
2620.9	-0.0000497
2619.0	-0.0000543
2617.1	-0.0000610
2615.1	-0.0000616
2613.2	-0.0000569
2611.3	-0.0000538
2609.3	-0.0000505
2607.4	-0.0000475
2605.5	-0.0000524
2603.6	-0.0000638
2601.6	-0.0000728
2599.7	-0.0000778
2597.8	-0.0000754
2595.8	-0.0000622
2593.9	-0.0000501
2592.0	-0.0000476
2590.1	-0.0000449
2588.1	-0.0000427
2586.2	-0.0000474
2584.3	-0.0000510
2582.3	-0.0000483
2580.4	-0.0000431
2578.5	-0.0000392
2576.6	-0.0000415
2574.6	-0.0000504
2572.7	-0.0000557
2570.8	-0.0000514
2568.8	-0.0000462
2566.9	-0.0000478
2565.0	-0.0000513
2563.1	-0.0000487
2561.1	-0.0000375
2559.2	-0.0000276
2557.3	-0.0000325
2555.3	-0.0000453
2553.4	-0.0000513
2551.5	-0.0000516
2549.6	-0.0000519
2547.6	-0.0000503
2545.7	-0.0000452
2543.8	-0.0000419
2541.8	-0.0000427
2539.9	-0.0000438
2538.0	-0.0000468
2536.1	-0.0000475
2534.1	-0.0000357
2532.2	-0.0000201
2530.3	-0.0000191
2528.3	-0.0000300
2526.4	-0.0000384
2524.5	-0.0000407
2522.6	-0.0000399
2520.6	-0.0000399
2518.7	-0.0000399
2516.8	-0.0000359
2514.8	-0.0000330
2512.9	-0.0000337
2511.0	-0.0000339
2509.1	-0.0000351
2507.1	-0.0000363
2505.2	-0.0000321
2503.3	-0.0000272
2501.3	-0.0000260
2499.4	-0.0000264
2497.5	-0.0000281
2495.6	-0.0000281
2493.6	-0.0000243
2491.7	-0.0000214
2489.8	-0.0000213
2487.8	-0.0000206
2485.9	-0.0000178
2484.0	-0.0000144
2482.1	-0.0000148
2480.1	-0.0000208
2478.2	-0.0000249
2476.3	-0.0000213
2474.3	-0.0000162
2472.4	-0.0000199
2470.5	-0.0000293
2468.6	-0.0000336
2466.6	-0.0000278
2464.7	-0.0000165
2462.8	-0.0000087
2460.8	-0.0000069
2458.9	-0.0000095
2457.0	-0.0000162
2455.1	-0.0000264
2453.1	-0.0000343
2451.2	-0.0000312
2449.3	-0.0000211
2447.3	-0.0000156
2445.4	-0.0000135
2443.5	-0.0000091
2441.6	-0.0000059
2439.6	-0.0000072
2437.7	-0.0000099
2435.8	-0.0000152
2433.8	-0.0000234
2431.9	-0.0000258
2430.0	-0.0000202
2428.1	-0.0000166
2426.1	-0.0000176
2424.2	-0.0000175
2422.3	-0.0000187
2420.3	-0.0000219
2418.4	-0.0000233
2416.5	-0.0000255
2414.6	-0.0000272
2412.6	-0.0000262
2410.7	-0.0000241
2408.8	-0.0000206
2406.8	-0.0000196
2404.9	-0.0000234
2403.0	-0.0000246
2401.1	-0.0000212
2399.1	-0.0000194
2397.2	-0.0000200
2395.3	-0.0000189
2393.3	-0.0000158
2391.4	-0.0000145
2389.5	-0.0000148
2387.6	-0.0000125
2385.6	-0.0000087
2383.7	-0.0000083
2381.8	-0.0000095
2379.8	-0.0000056
2377.9	0.0000015
2376.0	0.0000071
2374.1	0.0000200
2372.1	0.0000450
2370.2	0.0000713
2368.3	0.0000897
2366.3	0.0001005
2364.4	0.0001074
2362.5	0.0001140
2360.6	0.0001171
2358.6	0.0001105
2356.7	0.0000950
2354.8	0.0000747
2352.8	0.0000494
2350.9	0.0000253
2349.0	0.0000149
2347.1	0.0000214
2345.1	0.0000367
2343.2	0.0000532
2341.3	0.0000681
2339.3	0.0000814
2337.4	0.0000941
2335.5	0.0000994
2333.6	0.0000919
2331.6	0.0000827
2329.7	0.0000810
2327.8	0.0000783
2325.8	0.0000662
2323.9	0.0000540
2322.0	0.0000487
2320.1	0.0000449
2318.1	0.0000392
2316.2	0.0000327
2314.3	0.0000274
2312.3	0.0000229
2310.4	0.0000185
2308.5	0.0000165
2306.6	0.0000143
2304.6	0.0000075
2302.7	0.0000002
2300.8	0.0000010
2298.8	0.0000069
2296.9	0.0000057
2295.0	-0.0000026
2293.1	-0.0000074
2291.1	-0.0000060
2289.2	-0.0000053
2287.3	-0.0000048
2285.3	-0.0000004
2283.4	0.0000055
2281.5	0.0000087
2279.6	0.0000072
2277.6	0.0000025
2275.7	-0.0000053
2273.8	-0.0000140
2271.8	-0.0000138
2269.9	-0.0000041
2268.0	0.0000027
2266.1	0.0000024
2264.1	-0.0000013
2262.2	-0.0000039
2260.3	-0.0000031
2258.3	0.0000006
2256.4	0.0000072
2254.5	0.0000136
2252.6	0.0000147
2250.6	0.0000134
2248.7	0.0000130
2246.8	0.0000116
2244.8	0.0000119
2242.9	0.0000156
2241.0	0.0000177
2239.1	0.0000143
2237.1	0.0000061
2235.2	-0.0000028
2233.3	-0.0000047
2231.3	0.0000003
2229.4	0.0000013
2227.5	-0.0000029
2225.6	-0.0000037
2223.6	-0.0000019
2221.7	-0.0000042
2219.8	-0.0000100
2217.8	-0.0000161
2215.9	-0.0000204
2214.0	-0.0000209
2212.1	-0.0000181
2210.1	-0.0000127
2208.2	-0.0000076
2206.3	-0.0000055
2204.3	-0.0000046
2202.4	-0.0000064
2200.5	-0.0000109
2198.6	-0.0000110
2196.6	-0.0000062
2194.7	-0.0000038
2192.8	-0.0000046
2190.8	-0.0000023
2188.9	0.0000016
2187.0	0.0000010
2185.1	0.0000006
2183.1	0.0000032
2181.2	0.0000011
2179.3	-0.0000071
2177.3	-0.0000128
2175.4	-0.0000137
2173.5	-0.0000125
2171.6	-0.0000089
2169.6	-0.0000080
2167.7	-0.0000093
2165.8	-0.0000054
2163.8	0.0000005
2161.9	0.0000031
2160.0	0.0000043
2158.1	0.0000029
2156.1	-0.0000029
2154.2	-0.0000092
2152.3	-0.0000115
2150.3	-0.0000084
2148.4	-0.0000056
2146.5	-0.0000077
2144.6	-0.0000088
2142.6	-0.0000072
2140.7	-0.0000072
2138.8	-0.0000080
2136.8	-0.0000084
2134.9	-0.0000114
2133.0	-0.0000158
2131.1	-0.0000189
2129.1	-0.0000209
2127.2	-0.0000212
2125.3	-0.0000205
2123.3	-0.0000186
2121.4	-0.0000138
2119.5	-0.0000065
2117.6	-0.0000014
2115.6	-0.0000015
2113.7	-0.0000049
2111.8	-0.0000078
2109.8	-0.0000070
2107.9	-0.0000046
2106.0	-0.0000070
2104.1	-0.0000179
2102.1	-0.0000337
2100.2	-0.0000498
2098.3	-0.0000700
2096.3	-0.0001121
2094.4	-0.0002172
2092.5	-0.0004878
2090.6	-0.0010017
2088.6	-0.0015168
2086.7	-0.0015916
2084.8	-0.0011997
2082.8	-0.0007219
2080.9	-0.0003956
2079.0	-0.0002040
2077.1	-0.0000736
2075.1	0.0000336
2073.2	0.0001186
2071.3	0.0001689
2069.3	0.0001834
2067.4	0.0001748
2065.5	0.0001509
2063.6	0.0001178
2061.6	0.0000870
2059.7	0.0000634
2057.8	0.0000434
2055.8	0.0000276
2053.9	0.0000188
2052.0	0.0000140
2050.1	0.0000089
2048.1	0.0000050
2046.2	0.0000073
2044.3	0.0000175
2042.3	0.0000244
2040.4	0.0000145
2038.5	0.0000001
2036.6	0.0000000
2034.6	0.0000093
2032.7	0.0000169
2030.8	0.0000202
2028.8	0.0000200
2026.9	0.0000174
2025.0	0.0000204
2023.1	0.0000326
2021.1	0.0000459
2019.2	0.0000590
2017.3	0.0000646
2015.3	0.0000508
2013.4	0.0000335
2011.5	0.0000294
2009.6	0.0000292
2007.6	0.0000264
2005.7	0.0000233
2003.8	0.0000188
2001.8	0.0000148
1999.9	0.0000153
1998.0	0.0000170
1996.1	0.0000266
1994.1	0.0000583
1992.2	0.0000860
1990.3	0.0000771
1988.3	0.0000514
1986.4	0.0000322
1984.5	0.0000222
1982.6	0.0000219
1980.6	0.0000236
1978.7	0.0000225
1976.8	0.0000221
1974.8	0.0000232
1972.9	0.0000240
1971.0	0.0000333
1969.1	0.0000562
1967.1	0.0000675
1965.2	0.0000514
1963.3	0.0000305
1961.4	0.0000195
1959.4	0.0000146
1957.5	0.0000185
1955.6	0.0000274
1953.6	0.0000310
1951.7	0.0000293
1949.8	0.0000300
1947.9	0.0000395
1945.9	0.0000721
1944.0	0.0001234
1942.1	0.0001322
1940.1	0.0000799
1938.2	0.0000332
1936.3	0.0000193
1934.4	0.0000173
1932.4	0.0000184
1930.5	0.0000155
1928.6	0.0000072
1926.6	0.0000189
1924.7	0.0000663
1922.8	0.0001117
1920.9	0.0001557
1918.9	0.0002050
1917.0	0.0001768
1915.1	0.0000831
1913.1	0.0000422
1911.2	0.0000570
1909.3	0.0000629
1907.4	0.0000470
1905.4	0.0000310
1903.5	0.0000241
1901.6	0.0000141
1899.6	0.0000049
1897.7	0.0000161
1895.8	0.0000379
1893.9	0.0000525
1891.9	0.0000915
1890.0	0.0001418
1888.1	0.0001307
1886.1	0.0000840
1884.2	0.0000652
1882.3	0.0000630
1880.4	0.0000567
1878.4	0.0000466
1876.5	0.0000344
1874.6	0.0000340
1872.6	0.0001100
1870.7	0.0002775
1868.8	0.0003642
1866.9	0.0002534
1864.9	0.0000948
1863.0	0.0000263
1861.1	0.0000141
1859.1	0.0000065
1857.2	-0.0000037
1855.3	-0.0000078
1853.4	-0.0000052
1851.4	0.0000093
1849.5	0.0000590
1847.6	0.0002256
1845.6	0.0004930
1843.7	0.0005499
1841.8	0.0002976
1839.9	0.0000763
1837.9	0.0000287
1836.0	0.0000280
1834.1	0.0000605
1832.1	0.0001896
1830.2	0.0003115
1828.3	0.0003041
1826.4	0.0002554
1824.4	0.0001988
1822.5	0.0000961
1820.6	0.0000283
1818.6	0.0000261
1816.7	0.0000310
1814.8	0.0000371
1812.9	0.0000790
1810.9	0.0001211
1809.0	0.0001024
1807.1	0.0000562
1805.1	0.0000641
1803.2	0.0001570
1801.3	0.0002553
1799.4	0.0002506
1797.4	0.0001984
1795.5	0.0002965
1793.6	0.0005182
1791.6	0.0005360
1789.7	0.0003014
1787.8	0.0001492
1785.9	0.0001766
1783.9	0.0002040
1782.0	0.0001842
1780.1	0.0001567
1778.1	0.0001416
1776.2	0.0003118
1774.3	0.0007429
1772.4	0.0010112
1770.4	0.0008264
1768.5	0.0005002
1766.6	0.0002780
1764.6	0.0002285
1762.7	0.0003287
1760.8	0.0003508
1758.9	0.0002946
1756.9	0.0002726
1755.0	0.0003134
1753.1	0.0005309
1751.1	0.0007508
1749.2	0.0006702
1747.3	0.0004352
1745.4	0.0003095
1743.4	0.0003383
1741.5	0.0004610
1739.6	0.0005336
1737.6	0.0007207
1735.7	0.0012570
1733.8	0.0015058
1731.9	0.0010019
1729.9	0.0004063
1728.0	0.0001495
1726.1	0.0000817
1724.1	0.0000902
1722.2	0.0002296
1720.3	0.0007454
1718.4	0.0014208
1716.4	0.0014994
1714.5	0.0009306
1712.6	0.0003870
1710.6	0.0001864
1708.7	0.0002685
1706.8	0.0004690
1704.9	0.0006696
1702.9	0.0011336
1701.0	0.0017502
1699.1	0.0019181
1697.1	0.0017457
1695.2	0.0013575
1693.3	0.0006817
1691.4	0.0002509
1689.4	0.0003218
1687.5	0.0008975
1685.6	0.0016947
1683.6	0.0017148
1681.7	0.0009239
1679.8	0.0003639
1677.9	0.0004376
1675.9	0.0007136
1674.0	0.0007404
1672.1	0.0006991
1670.1	0.0007617
1668.2	0.0006115
1666.3	0.0003451
1664.4	0.0003335
1662.4	0.0003741
1660.5	0.0002349
1658.6	0.0001962
1656.6	0.0008418
1654.7	0.0021812
1652.8	0.0027468
1650.9	0.0018708
1648.9	0.0011467
1647.0	0.0011650
1645.1	0.0009422
1643.1	0.0004032
1641.2	0.0001547
1639.3	0.0004005
1637.4	0.0009884
1635.4	0.0012451
1633.5	0.0007726
1631.6	0.0002417
1629.6	0.0001435
1627.7	0.0002360
1625.8	0.0003613
1623.9	0.0004531
1621.9	0.0003901
1620.0	0.0004967
1618.1	0.0009633
1616.1	0.0010699
1614.2	0.0005525
1612.3	0.0001323
1610.4	0.0000654
1608.4	0.0000691
1606.5	0.0000380
1604.6	0.0000171
1602.6	0.0000140
1600.7	0.0000048
1598.8	-0.0000015
1596.9	0.0000099
1594.9	0.0000228
1593.0	0.0000188
1591.1	0.0000112
1589.1	0.0000098
1587.2	0.0000080
1585.3	0.0000036
1583.4	0.0000004
1581.4	0.0000529
1579.5	0.0004206
1577.6	0.0010881
1575.6	0.0012561
1573.7	0.0007670
1571.8	0.0005429
1569.9	0.0006514
1567.9	0.0005356
1566.0	0.0003324
1564.1	0.0004546
1562.1	0.0012686
1560.2	0.0024608
1558.3	0.0027417
1556.4	0.0019324
1554.4	0.0011167
1552.5	0.0006566
1550.6	0.0004073
1548.6	0.0003525
1546.7	0.0005315
1544.8	0.0010127
1542.9	0.0017797
1540.9	0.0024373
1539.0	0.0022098
1537.1	0.0013165
1535.1	0.0008293
1533.2	0.0007413
1531.3	0.0005434
1529.4	0.0004346
1527.4	0.0005849
1525.5	0.0008638
1523.6	0.0013043
1521.6	0.0016287
1519.7	0.0014191
1517.8	0.0009701
1515.9	0.0006668
1513.9	0.0005209
1512.0	0.0005821
1510.1	0.0010545
1508.1	0.0018884
1506.2	0.0021651
1504.3	0.0013795
1502.4	0.0005498
1500.4	0.0004459
1498.5	0.0007362
1496.6	0.0008433
1494.6	0.0006247
1492.7	0.0004862
1490.8	0.0005958
1488.9	0.0006159
1486.9	0.0004154
1485.0	0.0001996
1483.1	0.0001129
1481.1	0.0001245
1479.2	0.0002058
1477.3	0.0004135
1475.4	0.0007497
1473.4	0.0009931
1471.5	0.0008205
1469.6	0.0004087
1467.6	0.0002947
1465.7	0.0004446
1463.8	0.0004305
1461.9	0.0003799
1459.9	0.0008286
1458.0	0.0015273
1456.1	0.0015012
1454.1	0.0007720
1452.2	0.0002577
1450.3	0.0002087
1448.4	0.0002738
1446.4	0.0002166
1444.5	0.0000933
1442.6	0.0000479
1440.6	0.0001876
1438.7	0.0005716
1436.8	0.0008292
1434.9	0.0006041
1432.9	0.0002866
1431.0	0.0002214
1429.1	0.0002145
1427.1	0.0001723
1425.2	0.0001841
1423.3	0.0003140
1421.4	0.0006349
1419.4	0.0008732
1417.5	0.0006607
1415.6	0.0002733
1413.6	0.0000946
1411.7	0.0000674
1409.8	0.0000714
1407.9	0.0001186
1405.9	0.0001941
1404.0	0.0002078
1402.1	0.0002217
1400.1	0.0003294
1398.2	0.0004415
1396.3	0.0005108
1394.4	0.0004763
1392.4	0.0002968
1390.5	0.0001962
1388.6	0.0002628
1386.6	0.0002619
1384.7	0.0001341
1382.8	0.0000488
1380.9	0.0000480
1378.9	0.0000816
1377.0	0.0001530
1375.1	0.0002235
1373.1	0.0002053
1371.2	0.0001363
1369.3	0.0001048
1367.4	0.0001020
1365.4	0.0001412
1363.5	0.0002204
1361.6	0.0002322
1359.6	0.0001553
1357.7	0.0000914
1355.8	0.0000749
1353.9	0.0000613
1351.9	0.0000450
1350.0	0.0000438
1348.1	0.0000431
1346.1	0.0000372
1344.2	0.0000559
1342.3	0.0001263
1340.4	0.0002037
1338.4	0.0002059
1336.5	0.0001400
1334.6	0.0000818
1332.6	0.0000597
1330.7	0.0000551
1328.8	0.0000555
1326.9	0.0000569
1324.9	0.0000599
1323.0	0.0000669
1321.1	0.0000786
1319.1	0.0000851
1317.2	0.0000768
1315.3	0.0000660
1313.4	0.0000593
1311.4	0.0000467
1309.5	0.0000327
1307.6	0.0000279
1305.6	0.0000306
1303.7	0.0000342
1301.8	0.0000355
1299.9	0.0000359
1297.9	0.0000387
1296.0	0.0000412
1294.1	0.0000400
1292.1	0.0000383
1290.2	0.0000414
1288.3	0.0000475
1286.4	0.0000459
1284.4	0.0000350
1282.5	0.0000261
1280.6	0.0000260
1278.6	0.0000313
1276.7	0.0000357
1274.8	0.0000375
1272.9	0.0000416
1270.9	0.0000480
1269.0	0.0000500
1267.1	0.0000504
1265.1	0.0000536
1263.2	0.0000563
1261.3	0.0000585
1259.4	0.0000600
1257.4	0.0000571
1255.5	0.0000531
1253.6	0.0000538
1251.6	0.0000581
1249.7	0.0000585
1247.8	0.0000531
1245.9	0.0000493
1243.9	0.0000501
1242.0	0.0000486
1240.1	0.0000439
1238.1	0.0000425
1236.2	0.0000426
1234.3	0.0000373
1232.4	0.0000328
1230.4	0.0000390
1228.5	0.0000516
1226.6	0.0000599
1224.6	0.0000575
1222.7	0.0000465
1220.8	0.0000385
1218.9	0.0000395
1216.9	0.0000443
1215.0	0.0000493
1213.1	0.0000547
1211.1	0.0000587
1209.2	0.0000568
1207.3	0.0000524
1205.4	0.0000516
1203.4	0.0000525
1201.5	0.0000510
1199.6	0.0000476
1197.6	0.0000457
1195.7	0.0000485
1193.8	0.0000539
1191.9	0.0000577
1189.9	0.0000617
1188.0	0.0000670
1186.1	0.0000592
1184.1	0.0000265
1182.2	0.0000070
1180.3	0.0000531
1178.4	0.0001170
1176.4	0.0001217
1174.5	0.0000881
1172.6	0.0000649
1170.6	0.0000580
1168.7	0.0000526
1166.8	0.0000444
1164.9	0.0000426
1162.9	0.0000473
1161.0	0.0000517
1159.1	0.0000597
1157.1	0.0000711
1155.2	0.0000725
1153.3	0.0000623
1151.4	0.0000499
1149.4	0.0000398
1147.5	0.0000323
1145.6	0.0000279
1143.6	0.0000343
1141.7	0.0000575
1139.8	0.0000794
1137.9	0.0000836
1135.9	0.0000819
1134.0	0.0000804
1132.1	0.0000701
1130.1	0.0000559
1128.2	0.0000494
1126.3	0.0000510
1124.4	0.0000529
1122.4	0.0000499
1120.5	0.0000458
1118.6	0.0000442
1116.6	0.0000430
1114.7	0.0000452
1112.8	0.0000509
1110.9	0.0000501
1108.9	0.0000453
1107.0	0.0000498
1105.1	0.0000573
1103.1	0.0000526
1101.2	0.0000399
1099.3	0.0000362
1097.4	0.0000402
1095.4	0.0000360
1093.5	0.0000258
1091.6	0.0000259
1089.6	0.0000339
1087.7	0.0000321
1085.8	0.0000235
1083.9	0.0000232
1081.9	0.0000271
1080.0	0.0000262
1078.1	0.0000273
1076.1	0.0000335
1074.2	0.0000433
1072.3	0.0000497
1070.4	0.0000468
1068.4	0.0000404
1066.5	0.0000372
1064.6	0.0000346
1062.6	0.0000312
1060.7	0.0000260
1058.8	0.0000163
1056.9	0.0000046
1054.9	0.0000057
1053.0	0.0000203
1051.1	0.0000231
1049.1	0.0000096
1047.2	0.0000011
1045.3	0.0000022
1043.4	-0.0000034
1041.4	-0.0000181
1039.5	-0.0000239
1037.6	-0.0000243
1035.6	-0.0000369
1033.7	-0.0000512
1031.8	-0.0000538
1029.9	-0.0000494
1027.9	-0.0000435
1026.0	-0.0000407
1024.1	-0.0000440
1022.1	-0.0000467
1020.2	-0.0000412
1018.3	-0.0000307
1016.4	-0.0000232
1014.4	-0.0000197
1012.5	-0.0000189
1010.6	-0.0000257
1008.6	-0.0000353
1006.7	-0.0000307
1004.8	-0.0000164
1002.9	-0.0000122
1000.9	-0.0000179
999.0	-0.0000226
997.1	-0.0000242
995.1	-0.0000217
993.2	-0.0000155
991.3	-0.0000172
989.4	-0.0000239
987.4	-0.0000161
985.5	-0.0000015
983.6	0.0000026
981.6	0.0000011
979.7	-0.0000023
977.8	-0.0000071
975.9	-0.0000051
973.9	0.0000010
972.0	-0.0000007
970.1	-0.0000040
968.1	0.0000001
966.2	0.0000066
964.3	0.0000085
962.4	0.0000166
960.4	0.0000311
958.5	0.0000328
956.6	0.0000241
954.6	0.0000246
952.7	0.0000318
950.8	0.0000297
948.9	0.0000128
946.9	-0.0000021
945.0	-0.0000009
943.1	0.0000067
941.1	0.0000149
939.2	0.0000303
937.3	0.0000470
935.4	0.0000466
933.4	0.0000333
931.5	0.0000264
929.6	0.0000230
927.6	0.0000107
925.7	-0.0000057
923.8	-0.0000056
921.9	0.0000138
919.9	0.0000228
918.0	0.0000106
916.1	-0.0000004
914.1	0.0000005
912.2	0.0000046
910.3	0.0000031
908.4	-0.0000066
906.4	-0.0000176
904.5	-0.0000222
902.6	-0.0000236
900.6	-0.0000214
898.7	-0.0000103
896.8	0.0000034
894.9	0.0000099
892.9	0.0000124
891.0	0.0000190
889.1	0.0000307
887.1	0.0000380
885.2	0.0000305
883.3	0.0000243
881.4	0.0000235
879.4	0.0000163
877.5	0.0000048
875.6	-0.0000026
873.6	-0.0000088
871.7	-0.0000114
869.8	-0.0000105
867.9	-0.0000120
865.9	-0.0000258
864.0	-0.0000457
862.1	-0.0000523
860.1	-0.0000549
858.2	-0.0000716
856.3	-0.0000909
854.4	-0.0000873
852.4	-0.0000565
850.5	-0.0000351
848.6	-0.0000476
846.6	-0.0000548
844.7	-0.0000264
842.8	-0.0000061
840.9	-0.0000325
838.9	-0.0000746
837.0	-0.0000828
835.1	-0.0000700
833.1	-0.0000819
831.2	-0.0001029
829.3	-0.0001004
827.4	-0.0000984
825.4	-0.0001038
823.5	-0.0000884
821.6	-0.0000566
819.6	-0.0000356
817.7	-0.0000326
815.8	-0.0000298
813.9	-0.0000094
811.9	0.0000228
810.0	0.0000494
808.1	0.0000610
806.1	0.0000446
804.2	0.0000101
802.3	0.0000055
800.4	0.0000273
798.4	0.0000296
796.5	0.0000240
794.6	0.0000446
792.6	0.0000789
790.7	0.0000980
788.8	0.0001002
786.9	0.0000924
784.9	0.0000856
783.0	0.0001030
781.1	0.0001298
779.1	0.0001392
777.2	0.0001491
775.3	0.0001714
773.4	0.0002005
771.4	0.0002496
769.5	0.0003091
767.6	0.0003248
765.6	0.0003054
763.7	0.0003249
761.8	0.0003817
759.9	0.0004412
757.9	0.0005026
756.0	0.0005475
754.1	0.0005531
752.1	0.0005603
750.2	0.0006112
748.3	0.0006605
746.4	0.0007187
744.4	0.0008378
742.5	0.0009188
740.6	0.0009076
738.6	0.0009405
736.7	0.0011039
734.8	0.0013036
732.9	0.0014346
730.9	0.0015380
729.0	0.0017003
727.1	0.0018614
725.1	0.0019643
723.2	0.0020848
721.3	0.0022622
719.4	0.0024731
717.4	0.0026336
715.5	0.0027325
713.6	0.0029011
711.6	0.0030930
709.7	0.0031838
707.8	0.0032523
705.9	0.0033527
703.9	0.0034283
702.0	0.0035445
700.1	0.0036878
698.1	0.0037231
696.2	0.0036689
694.3	0.0035911
692.4	0.0035536
690.4	0.0036102
688.5	0.0037401
686.6	0.0038256
684.6	0.0038044
682.7	0.0037933
680.8	0.0038154
678.9	0.0037943
676.9	0.0037274
675.0	0.0036705
673.1	0.0036799
671.1	0.0037596
669.2	0.0038826
667.3	0.0039657
665.4	0.0039292
663.4	0.0038278
661.5	0.0036929
659.6	0.0034428
657.6	0.0032550
655.7	0.0034027
653.8	0.0036634
651.9	0.0036548
649.9	0.0034413
648.0	0.0033440
646.1	0.0034133
644.1	0.0034660
642.2	0.0034549
640.3	0.0034503
638.4	0.0035066
636.4	0.0036105
634.5	0.0036789
632.6	0.0036419
630.6	0.0035682
628.7	0.0035783
626.8	0.0035852
624.9	0.0035151
622.9	0.0034386
621.0	0.0033697
619.1	0.0033136
617.1	0.0033059
615.2	0.0033070
613.3	0.0032834
611.4	0.0032837
609.4	0.0033531
607.5	0.0034728
605.6	0.0035080
603.6	0.0033881
601.7	0.0033422
599.8	0.0034367
