3997.9	0.0000407
3996.0	0.0000301
3994.1	0.0000264
3992.1	0.0000311
3990.2	0.0000341
3988.3	0.0000324
3986.3	0.0000291
3984.4	0.0000248
3982.5	0.0000166
3980.6	0.0000053
3978.6	0.0000053
3976.7	0.0000192
3974.8	0.0000294
3972.8	0.0000289
3970.9	0.0000290
3969.0	0.0000391
3967.1	0.0000465
3965.1	0.0000428
3963.2	0.0000382
3961.3	0.0000362
3959.3	0.0000327
3957.4	0.0000294
3955.5	0.0000282
3953.6	0.0000344
3951.6	0.0000566
3949.7	0.0000841
3947.8	0.0000908
3945.8	0.0000816
3943.9	0.0000754
3942.0	0.0000570
3940.1	0.0000262
3938.1	0.0000175
3936.2	0.0000468
3934.3	0.0000976
3932.3	0.0001257
3930.4	0.0001019
3928.5	0.0000640
3926.6	0.0000538
3924.6	0.0000655
3922.7	0.0000872
3920.8	0.0001213
3918.8	0.0001424
3916.9	0.0001199
3915.0	0.0000682
3913.1	0.0000328
3911.1	0.0000244
3909.2	0.0000407
3907.3	0.0001100
3905.3	0.0002171
3903.4	0.0002892
3901.5	0.0002928
3899.6	0.0002351
3897.6	0.0001394
3895.7	0.0000799
3893.8	0.0001090
3891.8	0.0001499
3889.9	0.0001491
3888.0	0.0001895
3886.1	0.0002508
3884.1	0.0002303
3882.2	0.0001974
3880.3	0.0001822
3878.3	0.0001234
3876.4	0.0000903
3874.5	0.0001338
3872.6	0.0002400
3870.6	0.0003440
3868.7	0.0003411
3866.8	0.0003118
3864.8	0.0003189
3862.9	0.0002586
3861.0	0.0001406
3859.1	0.0001190
3857.1	0.0003921
3855.2	0.0008990
3853.3	0.0011003
3851.3	0.0007322
3849.4	0.0002515
3847.5	0.0000445
3845.6	0.0000495
3843.6	0.0001129
3841.7	0.0002178
3839.8	0.0003736
3837.8	0.0004539
3835.9	0.0003778
3834.0	0.0002607
3832.1	0.0001799
3830.1	0.0001122
3828.2	0.0000722
3826.3	0.0000725
3824.3	0.0001327
3822.4	0.0002480
3820.5	0.0003006
3818.6	0.0003012
3816.6	0.0003036
3814.7	0.0001957
3812.8	0.0000371
3810.8	0.0000335
3808.9	0.0001879
3807.0	0.0002954
3805.1	0.0002966
3803.1	0.0003556
3801.2	0.0003899
3799.3	0.0002624
3797.3	0.0001284
3795.4	0.0000521
3793.5	-0.0000176
3791.6	-0.0000551
3789.6	-0.0000603
3787.7	-0.0000518
3785.8	-0.0000361
3783.8	-0.0000207
3781.9	0.0000115
3780.0	0.0000441
3778.1	0.0000220
3776.1	-0.0000297
3774.2	-0.0000362
3772.3	0.0000192
3770.3	0.0000815
3768.4	0.0000974
3766.5	0.0000758
3764.6	0.0000373
3762.6	0.0000334
3760.7	0.0000982
3758.8	0.0001313
3756.8	0.0001132
3754.9	0.0002043
3753.0	0.0004666
3751.1	0.0007014
3749.1	0.0007176
3747.2	0.0007391
3745.3	0.0008711
3743.3	0.0007165
3741.4	0.0003239
3739.5	0.0001752
3737.6	0.0002850
3735.6	0.0003882
3733.7	0.0003687
3731.8	0.0002445
3729.8	0.0001172
3727.9	0.0000833
3726.0	0.0000965
3724.1	0.0000794
3722.1	0.0000578
3720.2	0.0000364
3718.3	0.0000043
3716.3	0.0000331
3714.4	0.0001989
3712.5	0.0003637
3710.6	0.0003009
3708.6	0.0000990
3706.7	-0.0000267
3704.8	-0.0000226
3702.8	0.0000401
3700.9	0.0000471
3699.0	-0.0000088
3697.1	-0.0000514
3695.1	-0.0000321
3693.2	0.0000779
3691.3	0.0002679
3689.3	0.0003833
3687.4	0.0002643
3685.5	0.0000431
3683.6	-0.0000616
3681.6	-0.0000459
3679.7	0.0000636
3677.8	0.0003095
3675.8	0.0005154
3673.9	0.0004991
3672.0	0.0004354
3670.1	0.0003679
3668.1	0.0001719
3666.2	-0.0000243
3664.3	-0.0001016
3662.3	-0.0001107
3660.4	-0.0000648
3658.5	0.0000690
3656.6	0.0001786
3654.6	0.0001681
3652.7	0.0002303
3650.8	0.0004266
3648.8	0.0004771
3646.9	0.0002799
3645.0	0.0000548
3643.1	-0.0000498
3641.1	-0.0000800
3639.2	-0.0000921
3637.3	-0.0000754
3635.3	-0.0000289
3633.4	0.0000576
3631.5	0.0002424
3629.6	0.0003930
3627.6	0.0002821
3625.7	0.0000494
3623.8	-0.0000403
3621.8	0.0000222
3619.9	0.0001064
3618.0	0.0001104
3616.1	0.0000776
3614.1	0.0000928
3612.2	0.0001397
3610.3	0.0001734
3608.3	0.0001397
3606.4	0.0000303
3604.5	-0.0000617
3602.6	-0.0000810
3600.6	-0.0000683
3598.7	-0.0000545
3596.8	-0.0000369
3594.8	-0.0000288
3592.9	-0.0000464
3591.0	-0.0000433
3589.1	0.0000177
3587.1	0.0000560
3585.2	0.0000103
3583.3	-0.0000544
3581.3	-0.0000836
3579.4	-0.0000942
3577.5	-0.0001039
3575.6	-0.0001103
3573.6	-0.0001119
3571.7	-0.0000883
3569.8	-0.0000101
3567.8	0.0000732
3565.9	0.0000676
3564.0	-0.0000107
3562.1	-0.0000751
3560.1	-0.0000985
3558.2	-0.0001004
3556.3	-0.0000964
3554.3	-0.0000859
3552.4	-0.0000820
3550.5	-0.0000907
3548.6	-0.0000812
3546.6	-0.0000598
3544.7	-0.0000670
3542.8	-0.0000928
3540.8	-0.0001081
3538.9	-0.0001091
3537.0	-0.0001017
3535.1	-0.0000982
3533.1	-0.0001008
3531.2	-0.0000956
3529.3	-0.0000845
3527.3	-0.0000784
3525.4	-0.0000783
3523.5	-0.0000877
3521.6	-0.0001015
3519.6	-0.0001088
3517.7	-0.0001161
3515.8	-0.0001272
3513.8	-0.0001266
3511.9	-0.0001082
3510.0	-0.0000864
3508.1	-0.0000781
3506.1	-0.0000825
3504.2	-0.0000889
3502.3	-0.0000980
3500.3	-0.0001090
3498.4	-0.0001106
3496.5	-0.0001048
3494.6	-0.0001022
3492.6	-0.0001042
3490.7	-0.0001044
3488.8	-0.0000963
3486.8	-0.0000873
3484.9	-0.0000857
3483.0	-0.0000849
3481.1	-0.0000832
3479.1	-0.0000827
3477.2	-0.0000794
3475.3	-0.0000774
3473.3	-0.0000806
3471.4	-0.0000837
3469.5	-0.0000886
3467.6	-0.0000934
3465.6	-0.0000891
3463.7	-0.0000804
3461.8	-0.0000774
3459.8	-0.0000799
3457.9	-0.0000842
3456.0	-0.0000875
3454.1	-0.0000911
3452.1	-0.0000936
3450.2	-0.0000881
3448.3	-0.0000784
3446.3	-0.0000746
3444.4	-0.0000698
3442.5	-0.0000572
3440.6	-0.0000516
3438.6	-0.0000562
3436.7	-0.0000597
3434.8	-0.0000640
3432.8	-0.0000692
3430.9	-0.0000707
3429.0	-0.0000724
3427.1	-0.0000734
3425.1	-0.0000630
3423.2	-0.0000459
3421.3	-0.0000395
3419.3	-0.0000441
3417.4	-0.0000505
3415.5	-0.0000542
3413.6	-0.0000486
3411.6	-0.0000387
3409.7	-0.0000414
3407.8	-0.0000496
3405.8	-0.0000421
3403.9	-0.0000279
3402.0	-0.0000296
3400.1	-0.0000381
3398.1	-0.0000395
3396.2	-0.0000374
3394.3	-0.0000317
3392.3	-0.0000234
3390.4	-0.0000255
3388.5	-0.0000404
3386.6	-0.0000514
3384.6	-0.0000457
3382.7	-0.0000317
3380.8	-0.0000231
3378.8	-0.0000198
3376.9	-0.0000198
3375.0	-0.0000217
3373.1	-0.0000156
3371.1	-0.0000000
3369.2	0.0000018
3367.3	-0.0000216
3365.3	-0.0000431
3363.4	-0.0000418
3361.5	-0.0000243
3359.6	-0.0000017
3357.6	0.0000143
3355.7	0.0000178
3353.8	0.0000118
3351.8	0.0000042
3349.9	0.0000026
3348.0	0.0000038
3346.1	-0.0000003
3344.1	-0.0000045
3342.2	-0.0000009
3340.3	0.0000037
3338.3	0.0000013
3336.4	0.0000009
3334.5	0.0000058
3332.6	0.0000097
3330.6	0.0000130
3328.7	0.0000243
3326.8	0.0000378
3324.8	0.0000360
3322.9	0.0000200
3321.0	0.0000085
3319.1	0.0000140
3317.1	0.0000306
3315.2	0.0000396
3313.3	0.0000355
3311.3	0.0000348
3309.4	0.0000464
3307.5	0.0000588
3305.6	0.0000644
3303.6	0.0000670
3301.7	0.0000687
3299.8	0.0000650
3297.8	0.0000500
3295.9	0.0000333
3294.0	0.0000362
3292.1	0.0000598
3290.1	0.0000841
3288.2	0.0000933
3286.3	0.0000894
3284.3	0.0000818
3282.4	0.0000761
3280.5	0.0000780
3278.6	0.0000894
3276.6	0.0001032
3274.7	0.0001129
3272.8	0.0001137
3270.8	0.0001124
3268.9	0.0001213
3267.0	0.0001361
3265.1	0.0001475
3263.1	0.0001503
3261.2	0.0001438
3259.3	0.0001394
3257.3	0.0001453
3255.4	0.0001575
3253.5	0.0001643
3251.6	0.0001565
3249.6	0.0001444
3247.7	0.0001488
3245.8	0.0001622
3243.8	0.0001648
3241.9	0.0001645
3240.0	0.0001714
3238.1	0.0001784
3236.1	0.0001850
3234.2	0.0001938
3232.3	0.0001992
3230.3	0.0001979
3228.4	0.0001899
3226.5	0.0001815
3224.6	0.0001840
3222.6	0.0001930
3220.7	0.0001989
3218.8	0.0002036
3216.8	0.0002041
3214.9	0.0001931
3213.0	0.0001768
3211.1	0.0001714
3209.1	0.0001783
3207.2	0.0001830
3205.3	0.0001789
3203.3	0.0001694
3201.4	0.0001623
3199.5	0.0001619
3197.6	0.0001669
3195.6	0.0001705
3193.7	0.0001649
3191.8	0.0001533
3189.8	0.0001482
3187.9	0.0001540
3186.0	0.0001629
3184.1	0.0001656
3182.1	0.0001618
3180.2	0.0001569
3178.3	0.0001523
3176.3	0.0001469
3174.4	0.0001371
3172.5	0.0001273
3170.6	0.0001260
3168.6	0.0001260
3166.7	0.0001217
3164.8	0.0001202
3162.8	0.0001202
3160.9	0.0001214
3159.0	0.0001273
3157.1	0.0001320
3155.1	0.0001290
3153.2	0.0001234
3151.3	0.0001242
3149.3	0.0001270
3147.4	0.0001231
3145.5	0.0001171
3143.6	0.0001110
3141.6	0.0001037
3139.7	0.0001012
3137.8	0.0001014
3135.8	0.0000989
3133.9	0.0000949
3132.0	0.0000899
3130.1	0.0000880
3128.1	0.0000927
3126.2	0.0000984
3124.3	0.0001011
3122.3	0.0001018
3120.4	0.0000976
3118.5	0.0000893
3116.6	0.0000851
3114.6	0.0000866
3112.7	0.0000871
3110.8	0.0000812
3108.8	0.0000720
3106.9	0.0000641
3105.0	0.0000571
3103.1	0.0000513
3101.1	0.0000502
3099.2	0.0000513
3097.3	0.0000463
3095.3	0.0000352
3093.4	0.0000268
3091.5	0.0000262
3089.6	0.0000315
3087.6	0.0000376
3085.7	0.0000405
3083.8	0.0000394
3081.8	0.0000352
3079.9	0.0000282
3078.0	0.0000186
3076.1	0.0000113
3074.1	0.0000130
3072.2	0.0000199
3070.3	0.0000262
3068.3	0.0000303
3066.4	0.0000314
3064.5	0.0000329
3062.6	0.0000339
3060.6	0.0000338
3058.7	0.0000350
3056.8	0.0000340
3054.8	0.0000275
3052.9	0.0000192
3051.0	0.0000151
3049.1	0.0000209
3047.1	0.0000306
3045.2	0.0000330
3043.3	0.0000276
3041.3	0.0000183
3039.4	0.0000106
3037.5	0.0000106
3035.6	0.0000160
3033.6	0.0000203
3031.7	0.0000213
3029.8	0.0000166
3027.8	0.0000103
3025.9	0.0000110
3024.0	0.0000185
3022.1	0.0000216
3020.1	0.0000109
3018.2	-0.0000055
3016.3	-0.0000118
3014.3	-0.0000028
3012.4	0.0000106
3010.5	0.0000181
3008.6	0.0000200
3006.6	0.0000192
3004.7	0.0000196
3002.8	0.0000203
3000.8	0.0000183
2998.9	0.0000178
2997.0	0.0000217
2995.1	0.0000271
2993.1	0.0000290
2991.2	0.0000212
2989.3	0.0000068
2987.3	0.0000012
2985.4	0.0000083
2983.5	0.0000156
2981.6	0.0000203
2979.6	0.0000251
2977.7	0.0000275
2975.8	0.0000295
2973.8	0.0000289
2971.9	0.0000204
2970.0	0.0000135
2968.1	0.0000161
2966.1	0.0000204
2964.2	0.0000218
2962.3	0.0000220
2960.3	0.0000219
2958.4	0.0000242
2956.5	0.0000299
2954.6	0.0000350
2952.6	0.0000343
2950.7	0.0000287
2948.8	0.0000218
2946.8	0.0000164
2944.9	0.0000195
2943.0	0.0000294
2941.1	0.0000327
2939.1	0.0000267
2937.2	0.0000207
2935.3	0.0000192
2933.3	0.0000201
2931.4	0.0000206
2929.5	0.0000242
2927.6	0.0000342
2925.6	0.0000390
2923.7	0.0000306
2921.8	0.0000229
2919.8	0.0000254
2917.9	0.0000313
2916.0	0.0000315
2914.1	0.0000235
2912.1	0.0000152
2910.2	0.0000151
2908.3	0.0000222
2906.3	0.0000287
2904.4	0.0000286
2902.5	0.0000243
2900.6	0.0000180
2898.6	0.0000111
2896.7	0.0000115
2894.8	0.0000194
2892.8	0.0000230
2890.9	0.0000203
2889.0	0.0000174
2887.1	0.0000131
2885.1	0.0000067
2883.2	0.0000074
2881.3	0.0000159
2879.3	0.0000196
2877.4	0.0000170
2875.5	0.0000173
2873.6	0.0000183
2871.6	0.0000188
2869.7	0.0000226
2867.8	0.0000223
2865.8	0.0000172
2863.9	0.0000177
2862.0	0.0000222
2860.1	0.0000239
2858.1	0.0000253
2856.2	0.0000270
2854.3	0.0000276
2852.3	0.0000276
2850.4	0.0000247
2848.5	0.0000206
2846.6	0.0000222
2844.6	0.0000278
2842.7	0.0000303
2840.8	0.0000277
2838.8	0.0000223
2836.9	0.0000184
2835.0	0.0000136
2833.1	0.0000100
2831.1	0.0000127
2829.2	0.0000169
2827.3	0.0000182
2825.3	0.0000166
2823.4	0.0000118
2821.5	0.0000085
2819.6	0.0000104
2817.6	0.0000139
2815.7	0.0000166
2813.8	0.0000178
2811.8	0.0000160
2809.9	0.0000145
2808.0	0.0000136
2806.1	0.0000085
2804.1	0.0000018
2802.2	-0.0000004
2800.3	0.0000048
2798.3	0.0000121
2796.4	0.0000133
2794.5	0.0000105
2792.6	0.0000103
2790.6	0.0000120
2788.7	0.0000105
2786.8	0.0000071
2784.8	0.0000094
2782.9	0.0000159
2781.0	0.0000202
2779.1	0.0000202
2777.1	0.0000160
2775.2	0.0000096
2773.3	0.0000076
2771.3	0.0000123
2769.4	0.0000170
2767.5	0.0000148
2765.6	0.0000111
2763.6	0.0000153
2761.7	0.0000238
2759.8	0.0000276
2757.8	0.0000252
2755.9	0.0000169
2754.0	0.0000097
2752.1	0.0000120
2750.1	0.0000206
2748.2	0.0000286
2746.3	0.0000332
2744.3	0.0000302
2742.4	0.0000213
2740.5	0.0000164
2738.6	0.0000164
2736.6	0.0000177
2734.7	0.0000226
2732.8	0.0000242
2730.8	0.0000170
2728.9	0.0000151
2727.0	0.0000214
2725.1	0.0000209
2723.1	0.0000157
2721.2	0.0000168
2719.3	0.0000216
2717.3	0.0000220
2715.4	0.0000160
2713.5	0.0000100
2711.6	0.0000115
2709.6	0.0000153
2707.7	0.0000138
2705.8	0.0000125
2703.8	0.0000159
2701.9	0.0000185
2700.0	0.0000174
2698.1	0.0000158
2696.1	0.0000129
2694.2	0.0000052
2692.3	0.0000027
2690.3	0.0000117
2688.4	0.0000184
2686.5	0.0000157
2684.6	0.0000131
2682.6	0.0000160
2680.7	0.0000209
2678.8	0.0000219
2676.8	0.0000187
2674.9	0.0000164
2673.0	0.0000168
2671.1	0.0000206
2669.1	0.0000265
2667.2	0.0000274
2665.3	0.0000262
2663.3	0.0000287
2661.4	0.0000285
2659.5	0.0000235
2657.6	0.0000184
2655.6	0.0000179
2653.7	0.0000250
2651.8	0.0000328
2649.8	0.0000324
2647.9	0.0000253
2646.0	0.0000202
2644.1	0.0000226
2642.1	0.0000293
2640.2	0.0000348
2638.3	0.0000337
2636.3	0.0000262
2634.4	0.0000211
2632.5	0.0000202
2630.6	0.0000157
2628.6	0.0000084
2626.7	0.0000085
2624.8	0.0000169
2622.8	0.0000277
2620.9	0.0000348
2619.0	0.0000306
2617.1	0.0000183
2615.1	0.0000146
2613.2	0.0000183
2611.3	0.0000170
2609.3	0.0000176
2607.4	0.0000232
2605.5	0.0000233
2603.6	0.0000196
2601.6	0.0000171
2599.7	0.0000127
2597.8	0.0000116
2595.8	0.0000204
2593.9	0.0000288
2592.0	0.0000302
2590.1	0.0000316
2588.1	0.0000308
2586.2	0.0000271
2584.3	0.0000289
2582.3	0.0000323
2580.4	0.0000315
2578.5	0.0000282
2576.6	0.0000240
2574.6	0.0000239
2572.7	0.0000301
2570.8	0.0000370
2568.8	0.0000373
2566.9	0.0000296
2565.0	0.0000223
2563.1	0.0000254
2561.1	0.0000396
2559.2	0.0000532
2557.3	0.0000528
2555.3	0.0000424
2553.4	0.0000361
2551.5	0.0000343
2549.6	0.0000334
2547.6	0.0000353
2545.7	0.0000405
2543.8	0.0000453
2541.8	0.0000463
2539.9	0.0000436
2538.0	0.0000404
2536.1	0.0000386
2534.1	0.0000374
2532.2	0.0000378
2530.3	0.0000378
2528.3	0.0000354
2526.4	0.0000345
2524.5	0.0000382
2522.6	0.0000409
2520.6	0.0000388
2518.7	0.0000364
2516.8	0.0000375
2514.8	0.0000372
2512.9	0.0000328
2511.0	0.0000275
2509.1	0.0000240
2507.1	0.0000245
2505.2	0.0000281
2503.3	0.0000292
2501.3	0.0000296
2499.4	0.0000331
2497.5	0.0000342
2495.6	0.0000322
2493.6	0.0000337
2491.7	0.0000376
2489.8	0.0000396
2487.8	0.0000381
2485.9	0.0000346
2484.0	0.0000349
2482.1	0.0000389
2480.1	0.0000406
2478.2	0.0000412
2476.3	0.0000452
2474.3	0.0000480
2472.4	0.0000416
2470.5	0.0000288
2468.6	0.0000208
2466.6	0.0000225
2464.7	0.0000290
2462.8	0.0000340
2460.8	0.0000351
2458.9	0.0000309
2457.0	0.0000248
2455.1	0.0000210
2453.1	0.0000186
2451.2	0.0000194
2449.3	0.0000251
2447.3	0.0000324
2445.4	0.0000400
2443.5	0.0000447
2441.6	0.0000416
2439.6	0.0000365
2437.7	0.0000366
2435.8	0.0000362
2433.8	0.0000321
2431.9	0.0000324
2430.0	0.0000394
2428.1	0.0000427
2426.1	0.0000396
2424.2	0.0000367
2422.3	0.0000329
2420.3	0.0000291
2418.4	0.0000290
2416.5	0.0000270
2414.6	0.0000240
2412.6	0.0000252
2410.7	0.0000285
2408.8	0.0000326
2406.8	0.0000355
2404.9	0.0000327
2403.0	0.0000266
2401.1	0.0000242
2399.1	0.0000234
2397.2	0.0000197
2395.3	0.0000175
2393.3	0.0000222
2391.4	0.0000284
2389.5	0.0000311
2387.6	0.0000308
2385.6	0.0000288
2383.7	0.0000276
2381.8	0.0000298
2379.8	0.0000368
2377.9	0.0000447
2376.0	0.0000482
2374.1	0.0000540
2372.1	0.0000693
2370.2	0.0000863
2368.3	0.0000979
2366.3	0.0001073
2364.4	0.0001177
2362.5	0.0001275
2360.6	0.0001307
2358.6	0.0001236
2356.7	0.0001139
2354.8	0.0001024
2352.8	0.0000777
2350.9	0.0000466
2349.0	0.0000332
2347.1	0.0000432
2345.1	0.0000612
2343.2	0.0000770
2341.3	0.0000876
2339.3	0.0000944
2337.4	0.0001027
2335.5	0.0001083
2333.6	0.0001020
2331.6	0.0000887
2329.7	0.0000821
2327.8	0.0000843
2325.8	0.0000838
2323.9	0.0000749
2322.0	0.0000643
2320.1	0.0000591
2318.1	0.0000564
2316.2	0.0000492
2314.3	0.0000402
2312.3	0.0000359
2310.4	0.0000366
2308.5	0.0000389
2306.6	0.0000380
2304.6	0.0000306
2302.7	0.0000213
2300.8	0.0000181
2298.8	0.0000224
2296.9	0.0000256
2295.0	0.0000221
2293.1	0.0000180
2291.1	0.0000202
2289.2	0.0000241
2287.3	0.0000239
2285.3	0.0000207
2283.4	0.0000213
2281.5	0.0000259
2279.6	0.0000280
2277.6	0.0000263
2275.7	0.0000227
2273.8	0.0000183
2271.8	0.0000166
2269.9	0.0000210
2268.0	0.0000248
2266.1	0.0000202
2264.1	0.0000102
2262.2	0.0000061
2260.3	0.0000114
2258.3	0.0000176
2256.4	0.0000201
2254.5	0.0000202
2252.6	0.0000185
2250.6	0.0000152
2248.7	0.0000109
2246.8	0.0000063
2244.8	0.0000018
2242.9	-0.0000024
2241.0	-0.0000036
2239.1	-0.0000038
2237.1	-0.0000083
2235.2	-0.0000174
2233.3	-0.0000227
2231.3	-0.0000198
2229.4	-0.0000154
2227.5	-0.0000130
2225.6	-0.0000107
2223.6	-0.0000081
2221.7	-0.0000063
2219.8	-0.0000063
2217.8	-0.0000092
2215.9	-0.0000093
2214.0	-0.0000067
2212.1	-0.0000079
2210.1	-0.0000094
2208.2	-0.0000060
2206.3	-0.0000010
2204.3	0.0000035
2202.4	0.0000057
2200.5	0.0000038
2198.6	0.0000040
2196.6	0.0000085
2194.7	0.0000100
2192.8	0.0000064
2190.8	0.0000050
2188.9	0.0000096
2187.0	0.0000165
2185.1	0.0000228
2183.1	0.0000257
2181.2	0.0000229
2179.3	0.0000170
2177.3	0.0000153
2175.4	0.0000174
2173.5	0.0000208
2171.6	0.0000288
2169.6	0.0000361
2167.7	0.0000373
2165.8	0.0000382
2163.8	0.0000404
2161.9	0.0000408
2160.0	0.0000409
2158.1	0.0000441
2156.1	0.0000448
2154.2	0.0000423
2152.3	0.0000427
2150.3	0.0000480
2148.4	0.0000534
2146.5	0.0000557
2144.6	0.0000586
2142.6	0.0000617
2140.7	0.0000650
2138.8	0.0000688
2136.8	0.0000710
2134.9	0.0000714
2133.0	0.0000730
2131.1	0.0000801
2129.1	0.0000902
2127.2	0.0000978
2125.3	0.0001050
2123.3	0.0001145
2121.4	0.0001236
2119.5	0.0001331
2117.6	0.0001455
2115.6	0.0001616
2113.7	0.0001832
2111.8	0.0002079
2109.8	0.0002342
2107.9	0.0002645
2106.0	0.0003002
2104.1	0.0003480
2102.1	0.0004231
2100.2	0.0005423
2098.3	0.0007471
2096.3	0.0011741
2094.4	0.0022277
2092.5	0.0044596
2090.6	0.0073884
2088.6	0.0090292
2086.7	0.0081854
2084.8	0.0059752
2082.8	0.0039854
2080.9	0.0026939
2079.0	0.0018978
2077.1	0.0013753
2075.1	0.0010201
2073.2	0.0007712
2071.3	0.0005877
2069.3	0.0004492
2067.4	0.0003481
2065.5	0.0002754
2063.6	0.0002197
2061.6	0.0001733
2059.7	0.0001304
2057.8	0.0000970
2055.8	0.0000797
2053.9	0.0000739
2052.0	0.0000686
2050.1	0.0000539
2048.1	0.0000317
2046.2	0.0000160
2044.3	0.0000122
2042.3	0.0000079
2040.4	-0.0000060
2038.5	-0.0000213
2036.6	-0.0000258
2034.6	-0.0000184
2032.7	-0.0000074
2030.8	0.0000002
2028.8	0.0000031
2026.9	0.0000036
2025.0	0.0000085
2023.1	0.0000192
2021.1	0.0000263
2019.2	0.0000274
2017.3	0.0000256
2015.3	0.0000185
2013.4	0.0000087
2011.5	0.0000012
2009.6	-0.0000025
2007.6	-0.0000032
2005.7	-0.0000045
2003.8	-0.0000071
2001.8	-0.0000091
1999.9	-0.0000103
1998.0	-0.0000097
1996.1	-0.0000038
1994.1	0.0000112
1992.2	0.0000241
1990.3	0.0000208
1988.3	0.0000079
1986.4	-0.0000031
1984.5	-0.0000085
1982.6	-0.0000067
1980.6	-0.0000030
1978.7	-0.0000042
1976.8	-0.0000091
1974.8	-0.0000129
1972.9	-0.0000112
1971.0	0.0000013
1969.1	0.0000181
1967.1	0.0000211
1965.2	0.0000114
1963.3	0.0000047
1961.4	0.0000027
1959.4	0.0000026
1957.5	0.0000039
1955.6	0.0000044
1953.6	0.0000016
1951.7	-0.0000018
1949.8	0.0000025
1947.9	0.0000158
1945.9	0.0000354
1944.0	0.0000565
1942.1	0.0000591
1940.1	0.0000380
1938.2	0.0000214
1936.3	0.0000206
1934.4	0.0000264
1932.4	0.0000346
1930.5	0.0000401
1928.6	0.0000422
1926.6	0.0000561
1924.7	0.0000877
1922.8	0.0001163
1920.9	0.0001465
1918.9	0.0001872
1917.0	0.0002020
1915.1	0.0002013
1913.1	0.0002490
1911.2	0.0003666
1909.3	0.0005619
1907.4	0.0008697
1905.4	0.0013092
1903.5	0.0018280
1901.6	0.0023021
1899.6	0.0026092
1897.7	0.0027006
1895.8	0.0026070
1893.9	0.0024008
1891.9	0.0021633
1890.0	0.0019286
1888.1	0.0016875
1886.1	0.0014616
1884.2	0.0012803
1882.3	0.0011343
1880.4	0.0010047
1878.4	0.0008866
1876.5	0.0007791
1874.6	0.0006802
1872.6	0.0006125
1870.7	0.0005892
1868.8	0.0005432
1866.9	0.0004266
1864.9	0.0003008
1863.0	0.0002178
1861.1	0.0001610
1859.1	0.0001131
1857.2	0.0000724
1855.3	0.0000406
1853.4	0.0000188
1851.4	0.0000079
1849.5	0.0000137
1847.6	0.0000724
1845.6	0.0001809
1843.7	0.0002002
1841.8	0.0000853
1839.9	-0.0000112
1837.9	-0.0000291
1836.0	-0.0000320
1834.1	-0.0000229
1832.1	0.0000340
1830.2	0.0000909
1828.3	0.0000865
1826.4	0.0000600
1824.4	0.0000309
1822.5	-0.0000165
1820.6	-0.0000452
1818.6	-0.0000421
1816.7	-0.0000384
1814.8	-0.0000386
1812.9	-0.0000243
1810.9	-0.0000113
1809.0	-0.0000276
1807.1	-0.0000536
1805.1	-0.0000497
1803.2	-0.0000054
1801.3	0.0000399
1799.4	0.0000368
1797.4	0.0000094
1795.5	0.0000455
1793.6	0.0001393
1791.6	0.0001537
1789.7	0.0000610
1787.8	-0.0000034
1785.9	0.0000080
1783.9	0.0000207
1782.0	0.0000091
1780.1	-0.0000087
1778.1	-0.0000189
1776.2	0.0000581
1774.3	0.0002570
1772.4	0.0003821
1770.4	0.0002962
1768.5	0.0001471
1766.6	0.0000539
1764.6	0.0000368
1762.7	0.0000782
1760.8	0.0000847
1758.9	0.0000583
1756.9	0.0000466
1755.0	0.0000671
1753.1	0.0001693
1751.1	0.0002675
1749.2	0.0002299
1747.3	0.0001288
1745.4	0.0000780
1743.4	0.0000923
1741.5	0.0001472
1739.6	0.0001808
1737.6	0.0002638
1735.7	0.0004986
1733.8	0.0006053
1731.9	0.0003827
1729.9	0.0001240
1728.0	0.0000167
1726.1	-0.0000087
1724.1	-0.0000035
1722.2	0.0000564
1720.3	0.0002834
1718.4	0.0005871
1716.4	0.0006283
1714.5	0.0003777
1712.6	0.0001354
1710.6	0.0000448
1708.7	0.0000761
1706.8	0.0001604
1704.9	0.0002449
1702.9	0.0004359
1701.0	0.0006918
1699.1	0.0007604
1697.1	0.0006873
1695.2	0.0005291
1693.3	0.0002479
1691.4	0.0000623
1689.4	0.0000921
1687.5	0.0003542
1685.6	0.0007181
1683.6	0.0007249
1681.7	0.0003605
1679.8	0.0001032
1677.9	0.0001363
1675.9	0.0002598
1674.0	0.0002703
1672.1	0.0002508
1670.1	0.0002794
1668.2	0.0002176
1666.3	0.0001073
1664.4	0.0001086
1662.4	0.0001305
1660.5	0.0000701
1658.6	0.0000506
1656.6	0.0003360
1654.7	0.0009393
1652.8	0.0012021
1650.9	0.0008133
1648.9	0.0004863
1647.0	0.0004948
1645.1	0.0003957
1643.1	0.0001485
1641.2	0.0000274
1639.3	0.0001285
1637.4	0.0003851
1635.4	0.0005001
1633.5	0.0002946
1631.6	0.0000597
1629.6	0.0000146
1627.7	0.0000563
1625.8	0.0001108
1623.9	0.0001492
1621.9	0.0001253
1620.0	0.0001828
1618.1	0.0003995
1616.1	0.0004519
1614.2	0.0002222
1612.3	0.0000340
1610.4	0.0000036
1608.4	0.0000072
1606.5	-0.0000017
1604.6	-0.0000046
1602.6	-0.0000025
1600.7	-0.0000098
1598.8	-0.0000193
1596.9	-0.0000191
1594.9	-0.0000145
1593.0	-0.0000151
1591.1	-0.0000163
1589.1	-0.0000149
1587.2	-0.0000176
1585.3	-0.0000238
1583.4	-0.0000248
1581.4	0.0000032
1579.5	0.0001686
1577.6	0.0004663
1575.6	0.0005412
1573.7	0.0003198
1571.8	0.0002188
1569.9	0.0002697
1567.9	0.0002193
1566.0	0.0001284
1564.1	0.0001743
1562.1	0.0005138
1560.2	0.0010292
1558.3	0.0011670
1556.4	0.0008280
1554.4	0.0004749
1552.5	0.0002707
1550.6	0.0001547
1548.6	0.0001267
1546.7	0.0002100
1544.8	0.0004311
1542.9	0.0007726
1540.9	0.0010541
1539.0	0.0009432
1537.1	0.0005477
1535.1	0.0003387
1533.2	0.0003039
1531.3	0.0002125
1529.4	0.0001565
1527.4	0.0002142
1525.5	0.0003306
1523.6	0.0005241
1521.6	0.0006701
1519.7	0.0005791
1517.8	0.0003764
1515.9	0.0002353
1513.9	0.0001698
1512.0	0.0002009
1510.1	0.0004168
1508.1	0.0007999
1506.2	0.0009375
1504.3	0.0005924
1502.4	0.0002176
1500.4	0.0001628
1498.5	0.0002782
1496.6	0.0003138
1494.6	0.0002171
1492.7	0.0001603
1490.8	0.0002077
1488.9	0.0002139
1486.9	0.0001273
1485.0	0.0000363
1483.1	-0.0000001
1481.1	0.0000013
1479.2	0.0000326
1477.3	0.0001231
1475.4	0.0002674
1473.4	0.0003718
1471.5	0.0003017
1469.6	0.0001267
1467.6	0.0000805
1465.7	0.0001496
1463.8	0.0001362
1461.9	0.0001015
1459.9	0.0003004
1458.0	0.0006182
1456.1	0.0006043
1454.1	0.0002705
1452.2	0.0000388
1450.3	0.0000199
1448.4	0.0000478
1446.4	0.0000177
1444.5	-0.0000388
1442.6	-0.0000564
1440.6	0.0000063
1438.7	0.0001751
1436.8	0.0002929
1434.9	0.0001983
1432.9	0.0000584
1431.0	0.0000300
1429.1	0.0000272
1427.1	0.0000036
1425.2	0.0000003
1423.3	0.0000551
1421.4	0.0002049
1419.4	0.0003167
1417.5	0.0002183
1415.6	0.0000439
1413.6	-0.0000290
1411.7	-0.0000350
1409.8	-0.0000331
1407.9	-0.0000147
1405.9	0.0000181
1404.0	0.0000231
1402.1	0.0000273
1400.1	0.0000771
1398.2	0.0001295
1396.3	0.0001599
1394.4	0.0001448
1392.4	0.0000607
1390.5	0.0000014
1388.6	0.0000163
1386.6	0.0000136
1384.7	-0.0000366
1382.8	-0.0000694
1380.9	-0.0000676
1378.9	-0.0000538
1377.0	-0.0000280
1375.1	-0.0000026
1373.1	-0.0000099
1371.2	-0.0000345
1369.3	-0.0000445
1367.4	-0.0000489
1365.4	-0.0000378
1363.5	-0.0000007
1361.6	0.0000131
1359.6	-0.0000151
1357.7	-0.0000422
1355.8	-0.0000506
1353.9	-0.0000589
1351.9	-0.0000645
1350.0	-0.0000594
1348.1	-0.0000582
1346.1	-0.0000651
1344.2	-0.0000574
1342.3	-0.0000189
1340.4	0.0000224
1338.4	0.0000236
1336.5	-0.0000077
1334.6	-0.0000342
1332.6	-0.0000483
1330.7	-0.0000585
1328.8	-0.0000615
1326.9	-0.0000549
1324.9	-0.0000440
1323.0	-0.0000345
1321.1	-0.0000292
1319.1	-0.0000297
1317.2	-0.0000363
1315.3	-0.0000408
1313.4	-0.0000399
1311.4	-0.0000386
1309.5	-0.0000394
1307.6	-0.0000412
1305.6	-0.0000434
1303.7	-0.0000449
1301.8	-0.0000438
1299.9	-0.0000403
1297.9	-0.0000365
1296.0	-0.0000346
1294.1	-0.0000351
1292.1	-0.0000353
1290.2	-0.0000344
1288.3	-0.0000324
1286.4	-0.0000283
1284.4	-0.0000243
1282.5	-0.0000242
1280.6	-0.0000265
1278.6	-0.0000285
1276.7	-0.0000328
1274.8	-0.0000370
1272.9	-0.0000335
1270.9	-0.0000251
1269.0	-0.0000192
1267.1	-0.0000153
1265.1	-0.0000134
1263.2	-0.0000142
1261.3	-0.0000100
1259.4	-0.0000011
1257.4	0.0000003
1255.5	-0.0000069
1253.6	-0.0000084
1251.6	0.0000014
1249.7	0.0000089
1247.8	0.0000063
1245.9	0.0000010
1243.9	0.0000011
1242.0	0.0000031
1240.1	-0.0000018
1238.1	-0.0000101
1236.2	-0.0000141
1234.3	-0.0000172
1232.4	-0.0000235
1230.4	-0.0000245
1228.5	-0.0000129
1226.6	0.0000022
1224.6	0.0000063
1222.7	-0.0000005
1220.8	-0.0000050
1218.9	-0.0000058
1216.9	-0.0000108
1215.0	-0.0000151
1213.1	-0.0000149
1211.1	-0.0000136
1209.2	-0.0000130
1207.3	-0.0000126
1205.4	-0.0000127
1203.4	-0.0000137
1201.5	-0.0000116
1199.6	0.0000008
1197.6	0.0000137
1195.7	0.0000122
1193.8	0.0000015
1191.9	-0.0000058
1189.9	-0.0000034
1188.0	0.0000061
1186.1	0.0000046
1184.1	-0.0000245
1182.2	-0.0000529
1180.3	-0.0000351
1178.4	0.0000058
1176.4	0.0000202
1174.5	0.0000143
1172.6	0.0000076
1170.6	-0.0000012
1168.7	-0.0000155
1166.8	-0.0000305
1164.9	-0.0000361
1162.9	-0.0000301
1161.0	-0.0000201
1159.1	-0.0000107
1157.1	-0.0000025
1155.2	-0.0000005
1153.3	-0.0000080
1151.4	-0.0000177
1149.4	-0.0000225
1147.5	-0.0000233
1145.6	-0.0000240
1143.6	-0.0000235
1141.7	-0.0000121
1139.8	0.0000046
1137.9	0.0000094
1135.9	0.0000042
1134.0	-0.0000017
1132.1	-0.0000081
1130.1	-0.0000152
1128.2	-0.0000215
1126.3	-0.0000202
1124.4	-0.0000111
1122.4	-0.0000100
1120.5	-0.0000177
1118.6	-0.0000162
1116.6	-0.0000063
1114.7	-0.0000024
1112.8	-0.0000042
1110.9	-0.0000069
1108.9	-0.0000086
1107.0	-0.0000046
1105.1	-0.0000020
1103.1	-0.0000085
1101.2	-0.0000161
1099.3	-0.0000186
1097.4	-0.0000200
1095.4	-0.0000247
1093.5	-0.0000310
1091.6	-0.0000292
1089.6	-0.0000173
1087.7	-0.0000095
1085.8	-0.0000133
1083.9	-0.0000210
1081.9	-0.0000271
1080.0	-0.0000314
1078.1	-0.0000346
1076.1	-0.0000341
1074.2	-0.0000194
1072.3	0.0000055
1070.4	0.0000168
1068.4	0.0000072
1066.5	-0.0000047
1064.6	-0.0000063
1062.6	-0.0000047
1060.7	-0.0000064
1058.8	-0.0000081
1056.9	-0.0000121
1054.9	-0.0000159
1053.0	-0.0000171
1051.1	-0.0000236
1049.1	-0.0000304
1047.2	-0.0000268
1045.3	-0.0000209
1043.4	-0.0000200
1041.4	-0.0000171
1039.5	-0.0000098
1037.6	-0.0000086
1035.6	-0.0000166
1033.7	-0.0000224
1031.8	-0.0000201
1029.9	-0.0000192
1027.9	-0.0000248
1026.0	-0.0000268
1024.1	-0.0000186
1022.1	-0.0000091
1020.2	-0.0000052
1018.3	-0.0000016
1016.4	0.0000005
1014.4	-0.0000041
1012.5	-0.0000078
1010.6	-0.0000062
1008.6	-0.0000024
1006.7	0.0000019
1004.8	0.0000034
1002.9	0.0000005
1000.9	-0.0000007
999.0	0.0000059
997.1	0.0000145
995.1	0.0000149
993.2	0.0000105
991.3	0.0000104
989.4	0.0000182
987.4	0.0000287
985.5	0.0000284
983.6	0.0000180
981.6	0.0000144
979.7	0.0000211
977.8	0.0000290
975.9	0.0000309
973.9	0.0000245
972.0	0.0000146
970.1	0.0000116
968.1	0.0000156
966.2	0.0000201
964.3	0.0000237
962.4	0.0000258
960.4	0.0000227
958.5	0.0000145
956.6	0.0000103
954.6	0.0000120
952.7	0.0000091
950.8	-0.0000005
948.9	-0.0000119
946.9	-0.0000186
945.0	-0.0000154
943.1	-0.0000073
941.1	-0.0000011
939.2	0.0000024
937.3	0.0000017
935.4	-0.0000135
933.4	-0.0000365
931.5	-0.0000508
929.6	-0.0000662
927.6	-0.0000829
925.7	-0.0000826
923.8	-0.0000700
921.9	-0.0000613
919.9	-0.0000639
918.0	-0.0000742
916.1	-0.0000809
914.1	-0.0000825
912.2	-0.0000823
910.3	-0.0000825
908.4	-0.0000915
906.4	-0.0001032
904.5	-0.0001060
902.6	-0.0001050
900.6	-0.0000999
898.7	-0.0000866
896.8	-0.0000813
894.9	-0.0000922
892.9	-0.0000959
891.0	-0.0000853
889.1	-0.0000831
887.1	-0.0000924
885.2	-0.0001093
883.3	-0.0001209
881.4	-0.0001150
879.4	-0.0001115
877.5	-0.0001077
875.6	-0.0000862
873.6	-0.0000708
871.7	-0.0000684
869.8	-0.0000557
867.9	-0.0000496
865.9	-0.0000766
864.0	-0.0001109
862.1	-0.0001172
860.1	-0.0001114
858.2	-0.0001308
856.3	-0.0001486
854.4	-0.0001146
852.4	-0.0000664
850.5	-0.0000628
848.6	-0.0000801
846.6	-0.0000708
844.7	-0.0000365
842.8	-0.0000170
840.9	-0.0000339
838.9	-0.0000618
837.0	-0.0000619
835.1	-0.0000382
833.1	-0.0000341
831.2	-0.0000560
829.3	-0.0000668
827.4	-0.0000603
825.4	-0.0000526
823.5	-0.0000418
821.6	-0.0000137
819.6	0.0000196
817.7	0.0000257
815.8	0.0000087
813.9	-0.0000036
811.9	-0.0000005
810.0	0.0000174
808.1	0.0000367
806.1	0.0000242
804.2	-0.0000163
802.3	-0.0000366
800.4	-0.0000278
798.4	-0.0000090
796.5	0.0000123
794.6	0.0000357
792.6	0.0000841
790.7	0.0001446
788.8	0.0001604
786.9	0.0001332
784.9	0.0001170
783.0	0.0001363
781.1	0.0001529
779.1	0.0001341
777.2	0.0001192
775.3	0.0001375
773.4	0.0001607
771.4	0.0001813
769.5	0.0002118
767.6	0.0002324
765.6	0.0002323
763.7	0.0002497
761.8	0.0003084
759.9	0.0003669
757.9	0.0003879
756.0	0.0003882
754.1	0.0003610
752.1	0.0002934
750.2	0.0002349
748.3	0.0002202
746.4	0.0002438
744.4	0.0002945
742.5	0.0003087
740.6	0.0002566
738.6	0.0002054
736.7	0.0001991
734.8	0.0002236
732.9	0.0002460
730.9	0.0002873
729.0	0.0003865
727.1	0.0004602
725.1	0.0004695
723.2	0.0004598
721.3	0.0004392
719.4	0.0004450
717.4	0.0004441
715.5	0.0004207
713.6	0.0004801
711.6	0.0005789
709.7	0.0006015
707.8	0.0005434
705.9	0.0004485
703.9	0.0003754
702.0	0.0003939
700.1	0.0004699
698.1	0.0004657
696.2	0.0003898
694.3	0.0003946
692.4	0.0004678
690.4	0.0005151
688.5	0.0005691
686.6	0.0005786
684.6	0.0004682
682.7	0.0004107
680.8	0.0005058
678.9	0.0006155
676.9	0.0006395
675.0	0.0006239
673.1	0.0006327
671.1	0.0007133
669.2	0.0009234
667.3	0.0011411
665.4	0.0011128
663.4	0.0008919
661.5	0.0006236
659.6	0.0001961
657.6	-0.0001987
655.7	-0.0000824
653.8	0.0003935
651.9	0.0006068
649.9	0.0004443
648.0	0.0003645
646.1	0.0005386
644.1	0.0006813
642.2	0.0006680
640.3	0.0005772
638.4	0.0004702
636.4	0.0004219
634.5	0.0004395
632.6	0.0004344
630.6	0.0003902
628.7	0.0003605
626.8	0.0003442
624.9	0.0003775
622.9	0.0004624
621.0	0.0004453
619.1	0.0003230
617.1	0.0002738
615.2	0.0003240
613.3	0.0003797
611.4	0.0003916
609.4	0.0004187
607.5	0.0005262
605.6	0.0005669
603.6	0.0004359
601.7	0.0003573
599.8	0.0004046
