3997.9	-0.0001168
3996.0	-0.0001112
3994.1	-0.0001075
3992.1	-0.0001051
3990.2	-0.0001009
3988.3	-0.0000975
3986.3	-0.0000970
3984.4	-0.0000953
3982.5	-0.0000917
3980.6	-0.0000941
3978.6	-0.0000970
3976.7	-0.0000868
3974.8	-0.0000744
3972.8	-0.0000764
3970.9	-0.0000823
3969.0	-0.0000741
3967.1	-0.0000579
3965.1	-0.0000523
3963.2	-0.0000593
3961.3	-0.0000655
3959.3	-0.0000680
3957.4	-0.0000755
3955.5	-0.0000822
3953.6	-0.0000719
3951.6	-0.0000407
3949.7	-0.0000080
3947.8	0.0000008
3945.8	-0.0000103
3943.9	-0.0000200
3942.0	-0.0000296
3940.1	-0.0000430
3938.1	-0.0000449
3936.2	-0.0000248
3934.3	0.0000093
3932.3	0.0000283
3930.4	0.0000112
3928.5	-0.0000155
3926.6	-0.0000219
3924.6	-0.0000129
3922.7	0.0000088
3920.8	0.0000435
3918.8	0.0000631
3916.9	0.0000463
3915.0	0.0000147
3913.1	0.0000042
3911.1	0.0000075
3909.2	0.0000110
3907.3	0.0000402
3905.3	0.0000929
3903.4	0.0001229
3901.5	0.0001175
3899.6	0.0000947
3897.6	0.0000601
3895.7	0.0000355
3893.8	0.0000474
3891.8	0.0000659
3889.9	0.0000681
3888.0	0.0000904
3886.1	0.0001170
3884.1	0.0001035
3882.2	0.0000926
3880.3	0.0000938
3878.3	0.0000640
3876.4	0.0000345
3874.5	0.0000461
3872.6	0.0001059
3870.6	0.0001743
3868.7	0.0001827
3866.8	0.0001718
3864.8	0.0001784
3862.9	0.0001442
3861.0	0.0000726
3859.1	0.0000573
3857.1	0.0002164
3855.2	0.0005161
3853.3	0.0006471
3851.3	0.0004431
3849.4	0.0001581
3847.5	0.0000263
3845.6	0.0000179
3843.6	0.0000449
3841.7	0.0000948
3839.8	0.0001691
3837.8	0.0002109
3835.9	0.0001820
3834.0	0.0001308
3832.1	0.0000911
3830.1	0.0000513
3828.2	0.0000267
3826.3	0.0000317
3824.3	0.0000633
3822.4	0.0001143
3820.5	0.0001367
3818.6	0.0001299
3816.6	0.0001212
3814.7	0.0000732
3812.8	0.0000094
3810.8	0.0000151
3808.9	0.0000989
3807.0	0.0001605
3805.1	0.0001597
3803.1	0.0001793
3801.2	0.0001878
3799.3	0.0001242
3797.3	0.0000622
3795.4	0.0000225
3793.5	-0.0000155
3791.6	-0.0000288
3789.6	-0.0000284
3787.7	-0.0000286
3785.8	-0.0000184
3783.8	-0.0000046
3781.9	0.0000092
3780.0	0.0000198
3778.1	0.0000068
3776.1	-0.0000164
3774.2	-0.0000170
3772.3	0.0000057
3770.3	0.0000307
3768.4	0.0000417
3766.5	0.0000362
3764.6	0.0000177
3762.6	0.0000196
3760.7	0.0000596
3758.8	0.0000743
3756.8	0.0000505
3754.9	0.0000806
3753.0	0.0002148
3751.1	0.0003635
3749.1	0.0004017
3747.2	0.0004269
3745.3	0.0005022
3743.3	0.0004092
3741.4	0.0001772
3739.5	0.0000805
3737.6	0.0001334
3735.6	0.0001979
3733.7	0.0002012
3731.8	0.0001389
3729.8	0.0000679
3727.9	0.0000452
3726.0	0.0000508
3724.1	0.0000410
3722.1	0.0000271
3720.2	0.0000126
3718.3	-0.0000072
3716.3	0.0000132
3714.4	0.0001203
3712.5	0.0002186
3710.6	0.0001656
3708.6	0.0000319
3706.7	-0.0000422
3704.8	-0.0000340
3702.8	0.0000065
3700.9	0.0000113
3699.0	-0.0000234
3697.1	-0.0000497
3695.1	-0.0000379
3693.2	0.0000243
3691.3	0.0001230
3689.3	0.0001763
3687.4	0.0001103
3685.5	-0.0000028
3683.6	-0.0000532
3681.6	-0.0000434
3679.7	0.0000104
3677.8	0.0001415
3675.8	0.0002670
3673.9	0.0002792
3672.0	0.0002502
3670.1	0.0001985
3668.1	0.0000733
3666.2	-0.0000429
3664.3	-0.0000838
3662.3	-0.0000790
3660.4	-0.0000421
3658.5	0.0000393
3656.6	0.0000993
3654.6	0.0000862
3652.7	0.0001140
3650.8	0.0002196
3648.8	0.0002481
3646.9	0.0001425
3645.0	0.0000194
3643.1	-0.0000445
3641.1	-0.0000741
3639.2	-0.0000910
3637.3	-0.0000839
3635.3	-0.0000527
3633.4	0.0000070
3631.5	0.0001186
3629.6	0.0002012
3627.6	0.0001356
3625.7	0.0000030
3623.8	-0.0000569
3621.8	-0.0000388
3619.9	0.0000006
3618.0	0.0000099
3616.1	0.0000025
3614.1	0.0000218
3612.2	0.0000587
3610.3	0.0000802
3608.3	0.0000556
3606.4	-0.0000119
3604.5	-0.0000658
3602.6	-0.0000736
3600.6	-0.0000614
3598.7	-0.0000523
3596.8	-0.0000482
3594.8	-0.0000524
3592.9	-0.0000706
3591.0	-0.0000825
3589.1	-0.0000626
3587.1	-0.0000440
3585.2	-0.0000609
3583.3	-0.0000857
3581.3	-0.0000944
3579.4	-0.0000959
3577.5	-0.0001000
3575.6	-0.0001076
3573.6	-0.0001110
3571.7	-0.0000945
3569.8	-0.0000461
3567.8	0.0000028
3565.9	-0.0000033
3564.0	-0.0000508
3562.1	-0.0000852
3560.1	-0.0000939
3558.2	-0.0000923
3556.3	-0.0000919
3554.3	-0.0000926
3552.4	-0.0000951
3550.5	-0.0001000
3548.6	-0.0000959
3546.6	-0.0000933
3544.7	-0.0001075
3542.8	-0.0001199
3540.8	-0.0001163
3538.9	-0.0001088
3537.0	-0.0001081
3535.1	-0.0001139
3533.1	-0.0001199
3531.2	-0.0001194
3529.3	-0.0001148
3527.3	-0.0001100
3525.4	-0.0001051
3523.5	-0.0001063
3521.6	-0.0001151
3519.6	-0.0001242
3517.7	-0.0001304
3515.8	-0.0001345
3513.8	-0.0001350
3511.9	-0.0001255
3510.0	-0.0001101
3508.1	-0.0001010
3506.1	-0.0000988
3504.2	-0.0000988
3502.3	-0.0001036
3500.3	-0.0001099
3498.4	-0.0001114
3496.5	-0.0001159
3494.6	-0.0001272
3492.6	-0.0001331
3490.7	-0.0001304
3488.8	-0.0001248
3486.8	-0.0001172
3484.9	-0.0001114
3483.0	-0.0001090
3481.1	-0.0001091
3479.1	-0.0001127
3477.2	-0.0001171
3475.3	-0.0001190
3473.3	-0.0001152
3471.4	-0.0001105
3469.5	-0.0001165
3467.6	-0.0001252
3465.6	-0.0001210
3463.7	-0.0001075
3461.8	-0.0000976
3459.8	-0.0000979
3457.9	-0.0001038
3456.0	-0.0001090
3454.1	-0.0001159
3452.1	-0.0001250
3450.2	-0.0001270
3448.3	-0.0001189
3446.3	-0.0001080
3444.4	-0.0001027
3442.5	-0.0001072
3440.6	-0.0001132
3438.6	-0.0001095
3436.7	-0.0001036
3434.8	-0.0001066
3432.8	-0.0001160
3430.9	-0.0001218
3429.0	-0.0001206
3427.1	-0.0001141
3425.1	-0.0001052
3423.2	-0.0000949
3421.3	-0.0000893
3419.3	-0.0000964
3417.4	-0.0001073
3415.5	-0.0001110
3413.6	-0.0001077
3411.6	-0.0000979
3409.7	-0.0000878
3407.8	-0.0000893
3405.8	-0.0000947
3403.9	-0.0000921
3402.0	-0.0000884
3400.1	-0.0000911
3398.1	-0.0001002
3396.2	-0.0001124
3394.3	-0.0001168
3392.3	-0.0001074
3390.4	-0.0000935
3388.5	-0.0000929
3386.6	-0.0001043
3384.6	-0.0001052
3382.7	-0.0000922
3380.8	-0.0000764
3378.8	-0.0000705
3376.9	-0.0000839
3375.0	-0.0000993
3373.1	-0.0000953
3371.1	-0.0000849
3369.2	-0.0000888
3367.3	-0.0001049
3365.3	-0.0001185
3363.4	-0.0001194
3361.5	-0.0001052
3359.6	-0.0000849
3357.6	-0.0000723
3355.7	-0.0000705
3353.8	-0.0000781
3351.8	-0.0000922
3349.9	-0.0001049
3348.0	-0.0001105
3346.1	-0.0001083
3344.1	-0.0000984
3342.2	-0.0000844
3340.3	-0.0000773
3338.3	-0.0000831
3336.4	-0.0000930
3334.5	-0.0001001
3332.6	-0.0001027
3330.6	-0.0000988
3328.7	-0.0000936
3326.8	-0.0000942
3324.8	-0.0000982
3322.9	-0.0001007
3321.0	-0.0001048
3319.1	-0.0001092
3317.1	-0.0001057
3315.2	-0.0000941
3313.3	-0.0000859
3311.3	-0.0000869
3309.4	-0.0000904
3307.5	-0.0000914
3305.6	-0.0000910
3303.6	-0.0000878
3301.7	-0.0000779
3299.8	-0.0000723
3297.8	-0.0000837
3295.9	-0.0000983
3294.0	-0.0000942
3292.1	-0.0000744
3290.1	-0.0000632
3288.2	-0.0000680
3286.3	-0.0000713
3284.3	-0.0000652
3282.4	-0.0000598
3280.5	-0.0000628
3278.6	-0.0000676
3276.6	-0.0000673
3274.7	-0.0000659
3272.8	-0.0000655
3270.8	-0.0000630
3268.9	-0.0000589
3267.0	-0.0000510
3265.1	-0.0000422
3263.1	-0.0000452
3261.2	-0.0000534
3259.3	-0.0000502
3257.3	-0.0000397
3255.4	-0.0000316
3253.5	-0.0000324
3251.6	-0.0000453
3249.6	-0.0000568
3247.7	-0.0000515
3245.8	-0.0000399
3243.8	-0.0000403
3241.9	-0.0000488
3240.0	-0.0000543
3238.1	-0.0000486
3236.1	-0.0000319
3234.2	-0.0000185
3232.3	-0.0000187
3230.3	-0.0000225
3228.4	-0.0000248
3226.5	-0.0000239
3224.6	-0.0000158
3222.6	-0.0000089
3220.7	-0.0000079
3218.8	-0.0000034
3216.8	0.0000061
3214.9	0.0000113
3213.0	0.0000098
3211.1	0.0000090
3209.1	0.0000106
3207.2	0.0000125
3205.3	0.0000146
3203.3	0.0000175
3201.4	0.0000203
3199.5	0.0000200
3197.6	0.0000176
3195.6	0.0000162
3193.7	0.0000137
3191.8	0.0000109
3189.8	0.0000143
3187.9	0.0000225
3186.0	0.0000262
3184.1	0.0000253
3182.1	0.0000273
3180.2	0.0000334
3178.3	0.0000380
3176.3	0.0000395
3174.4	0.0000373
3172.5	0.0000322
3170.6	0.0000314
3168.6	0.0000332
3166.7	0.0000323
3164.8	0.0000293
3162.8	0.0000284
3160.9	0.0000330
3159.0	0.0000385
3157.1	0.0000404
3155.1	0.0000399
3153.2	0.0000402
3151.3	0.0000439
3149.3	0.0000482
3147.4	0.0000502
3145.5	0.0000535
3143.6	0.0000579
3141.6	0.0000593
3139.7	0.0000591
3137.8	0.0000591
3135.8	0.0000593
3133.9	0.0000589
3132.0	0.0000538
3130.1	0.0000474
3128.1	0.0000476
3126.2	0.0000528
3124.3	0.0000596
3122.3	0.0000686
3120.4	0.0000771
3118.5	0.0000766
3116.6	0.0000695
3114.6	0.0000681
3112.7	0.0000730
3110.8	0.0000738
3108.8	0.0000704
3106.9	0.0000650
3105.0	0.0000574
3103.1	0.0000565
3101.1	0.0000633
3099.2	0.0000650
3097.3	0.0000589
3095.3	0.0000549
3093.4	0.0000575
3091.5	0.0000610
3089.6	0.0000627
3087.6	0.0000636
3085.7	0.0000646
3083.8	0.0000680
3081.8	0.0000719
3079.9	0.0000688
3078.0	0.0000603
3076.1	0.0000598
3074.1	0.0000663
3072.2	0.0000726
3070.3	0.0000762
3068.3	0.0000740
3066.4	0.0000670
3064.5	0.0000645
3062.6	0.0000656
3060.6	0.0000653
3058.7	0.0000646
3056.8	0.0000646
3054.8	0.0000651
3052.9	0.0000657
3051.0	0.0000651
3049.1	0.0000649
3047.1	0.0000676
3045.2	0.0000709
3043.3	0.0000689
3041.3	0.0000602
3039.4	0.0000532
3037.5	0.0000522
3035.6	0.0000502
3033.6	0.0000477
3031.7	0.0000514
3029.8	0.0000539
3027.8	0.0000484
3025.9	0.0000429
3024.0	0.0000407
3022.1	0.0000346
3020.1	0.0000205
3018.2	0.0000071
3016.3	0.0000104
3014.3	0.0000303
3012.4	0.0000491
3010.5	0.0000570
3008.6	0.0000559
3006.6	0.0000536
3004.7	0.0000571
3002.8	0.0000608
3000.8	0.0000565
2998.9	0.0000490
2997.0	0.0000455
2995.1	0.0000466
2993.1	0.0000487
2991.2	0.0000456
2989.3	0.0000370
2987.3	0.0000310
2985.4	0.0000304
2983.5	0.0000345
2981.6	0.0000429
2979.6	0.0000511
2977.7	0.0000541
2975.8	0.0000540
2973.8	0.0000525
2971.9	0.0000497
2970.0	0.0000482
2968.1	0.0000503
2966.1	0.0000543
2964.2	0.0000585
2962.3	0.0000560
2960.3	0.0000457
2958.4	0.0000421
2956.5	0.0000507
2954.6	0.0000603
2952.6	0.0000625
2950.7	0.0000564
2948.8	0.0000492
2946.8	0.0000485
2944.9	0.0000587
2943.0	0.0000743
2941.1	0.0000774
2939.1	0.0000637
2937.2	0.0000503
2935.3	0.0000486
2933.3	0.0000513
2931.4	0.0000480
2929.5	0.0000472
2927.6	0.0000607
2925.6	0.0000729
2923.7	0.0000676
2921.8	0.0000595
2919.8	0.0000589
2917.9	0.0000589
2916.0	0.0000562
2914.1	0.0000521
2912.1	0.0000472
2910.2	0.0000435
2908.3	0.0000454
2906.3	0.0000499
2904.4	0.0000519
2902.5	0.0000531
2900.6	0.0000525
2898.6	0.0000460
2896.7	0.0000384
2894.8	0.0000346
2892.8	0.0000314
2890.9	0.0000296
2889.0	0.0000316
2887.1	0.0000320
2885.1	0.0000289
2883.2	0.0000294
2881.3	0.0000360
2879.3	0.0000416
2877.4	0.0000418
2875.5	0.0000403
2873.6	0.0000435
2871.6	0.0000532
2869.7	0.0000602
2867.8	0.0000573
2865.8	0.0000505
2863.9	0.0000450
2862.0	0.0000409
2860.1	0.0000370
2858.1	0.0000335
2856.2	0.0000320
2854.3	0.0000373
2852.3	0.0000509
2850.4	0.0000578
2848.5	0.0000494
2846.6	0.0000408
2844.6	0.0000413
2842.7	0.0000462
2840.8	0.0000490
2838.8	0.0000461
2836.9	0.0000418
2835.0	0.0000380
2833.1	0.0000343
2831.1	0.0000374
2829.2	0.0000436
2827.3	0.0000428
2825.3	0.0000389
2823.4	0.0000364
2821.5	0.0000349
2819.6	0.0000366
2817.6	0.0000387
2815.7	0.0000383
2813.8	0.0000383
2811.8	0.0000388
2809.9	0.0000390
2808.0	0.0000379
2806.1	0.0000317
2804.1	0.0000224
2802.2	0.0000195
2800.3	0.0000273
2798.3	0.0000356
2796.4	0.0000363
2794.5	0.0000348
2792.6	0.0000370
2790.6	0.0000432
2788.7	0.0000476
2786.8	0.0000462
2784.8	0.0000417
2782.9	0.0000387
2781.0	0.0000399
2779.1	0.0000418
2777.1	0.0000403
2775.2	0.0000374
2773.3	0.0000350
2771.3	0.0000323
2769.4	0.0000308
2767.5	0.0000311
2765.6	0.0000339
2763.6	0.0000402
2761.7	0.0000427
2759.8	0.0000358
2757.8	0.0000255
2755.9	0.0000178
2754.0	0.0000188
2752.1	0.0000316
2750.1	0.0000433
2748.2	0.0000437
2746.3	0.0000399
2744.3	0.0000355
2742.4	0.0000306
2740.5	0.0000285
2738.6	0.0000257
2736.6	0.0000220
2734.7	0.0000240
2732.8	0.0000306
2730.8	0.0000364
2728.9	0.0000405
2727.0	0.0000405
2725.1	0.0000335
2723.1	0.0000276
2721.2	0.0000295
2719.3	0.0000354
2717.3	0.0000374
2715.4	0.0000325
2713.5	0.0000295
2711.6	0.0000345
2709.6	0.0000399
2707.7	0.0000389
2705.8	0.0000336
2703.8	0.0000296
2701.9	0.0000280
2700.0	0.0000278
2698.1	0.0000292
2696.1	0.0000278
2694.2	0.0000200
2692.3	0.0000141
2690.3	0.0000163
2688.4	0.0000191
2686.5	0.0000190
2684.6	0.0000245
2682.6	0.0000380
2680.7	0.0000500
2678.8	0.0000516
2676.8	0.0000432
2674.9	0.0000319
2673.0	0.0000241
2671.1	0.0000237
2669.1	0.0000308
2667.2	0.0000390
2665.3	0.0000440
2663.3	0.0000468
2661.4	0.0000449
2659.5	0.0000369
2657.6	0.0000276
2655.6	0.0000226
2653.7	0.0000244
2651.8	0.0000311
2649.8	0.0000349
2647.9	0.0000328
2646.0	0.0000318
2644.1	0.0000340
2642.1	0.0000341
2640.2	0.0000326
2638.3	0.0000319
2636.3	0.0000318
2634.4	0.0000333
2632.5	0.0000347
2630.6	0.0000306
2628.6	0.0000234
2626.7	0.0000225
2624.8	0.0000288
2622.8	0.0000344
2620.9	0.0000340
2619.0	0.0000311
2617.1	0.0000305
2615.1	0.0000308
2613.2	0.0000296
2611.3	0.0000264
2609.3	0.0000248
2607.4	0.0000286
2605.5	0.0000319
2603.6	0.0000297
2601.6	0.0000246
2599.7	0.0000194
2597.8	0.0000183
2595.8	0.0000239
2593.9	0.0000266
2592.0	0.0000226
2590.1	0.0000235
2588.1	0.0000285
2586.2	0.0000280
2584.3	0.0000261
2582.3	0.0000270
2580.4	0.0000289
2578.5	0.0000312
2576.6	0.0000323
2574.6	0.0000324
2572.7	0.0000327
2570.8	0.0000337
2568.8	0.0000338
2566.9	0.0000323
2565.0	0.0000326
2563.1	0.0000392
2561.1	0.0000524
2559.2	0.0000636
2557.3	0.0000632
2555.3	0.0000555
2553.4	0.0000491
2551.5	0.0000433
2549.6	0.0000409
2547.6	0.0000484
2545.7	0.0000591
2543.8	0.0000613
2541.8	0.0000554
2539.9	0.0000472
2538.0	0.0000393
2536.1	0.0000347
2534.1	0.0000343
2532.2	0.0000380
2530.3	0.0000412
2528.3	0.0000393
2526.4	0.0000371
2524.5	0.0000369
2522.6	0.0000361
2520.6	0.0000363
2518.7	0.0000376
2516.8	0.0000369
2514.8	0.0000323
2512.9	0.0000288
2511.0	0.0000288
2509.1	0.0000297
2507.1	0.0000323
2505.2	0.0000346
2503.3	0.0000344
2501.3	0.0000344
2499.4	0.0000336
2497.5	0.0000305
2495.6	0.0000284
2493.6	0.0000283
2491.7	0.0000297
2489.8	0.0000323
2487.8	0.0000309
2485.9	0.0000234
2484.0	0.0000179
2482.1	0.0000196
2480.1	0.0000258
2478.2	0.0000336
2476.3	0.0000409
2474.3	0.0000408
2472.4	0.0000287
2470.5	0.0000150
2468.6	0.0000113
2466.6	0.0000191
2464.7	0.0000308
2462.8	0.0000361
2460.8	0.0000370
2458.9	0.0000380
2457.0	0.0000348
2455.1	0.0000272
2453.1	0.0000223
2451.2	0.0000225
2449.3	0.0000242
2447.3	0.0000255
2445.4	0.0000257
2443.5	0.0000272
2441.6	0.0000308
2439.6	0.0000309
2437.7	0.0000261
2435.8	0.0000184
2433.8	0.0000115
2431.9	0.0000116
2430.0	0.0000196
2428.1	0.0000261
2426.1	0.0000256
2424.2	0.0000214
2422.3	0.0000153
2420.3	0.0000118
2418.4	0.0000152
2416.5	0.0000181
2414.6	0.0000177
2412.6	0.0000170
2410.7	0.0000153
2408.8	0.0000143
2406.8	0.0000156
2404.9	0.0000149
2403.0	0.0000120
2401.1	0.0000115
2399.1	0.0000119
2397.2	0.0000083
2395.3	0.0000042
2393.3	0.0000058
2391.4	0.0000113
2389.5	0.0000149
2387.6	0.0000154
2385.6	0.0000139
2383.7	0.0000107
2381.8	0.0000050
2379.8	0.0000024
2377.9	0.0000097
2376.0	0.0000209
2374.1	0.0000330
2372.1	0.0000483
2370.2	0.0000602
2368.3	0.0000648
2366.3	0.0000658
2364.4	0.0000671
2362.5	0.0000716
2360.6	0.0000752
2358.6	0.0000699
2356.7	0.0000592
2354.8	0.0000501
2352.8	0.0000395
2350.9	0.0000252
2349.0	0.0000167
2347.1	0.0000208
2345.1	0.0000314
2343.2	0.0000401
2341.3	0.0000467
2339.3	0.0000550
2337.4	0.0000642
2335.5	0.0000666
2333.6	0.0000602
2331.6	0.0000519
2329.7	0.0000460
2327.8	0.0000422
2325.8	0.0000387
2323.9	0.0000356
2322.0	0.0000349
2320.1	0.0000373
2318.1	0.0000400
2316.2	0.0000362
2314.3	0.0000256
2312.3	0.0000168
2310.4	0.0000167
2308.5	0.0000206
2306.6	0.0000203
2304.6	0.0000171
2302.7	0.0000138
2300.8	0.0000075
2298.8	0.0000020
2296.9	0.0000015
2295.0	-0.0000005
2293.1	-0.0000056
2291.1	-0.0000066
2289.2	-0.0000036
2287.3	-0.0000010
2285.3	0.0000004
2283.4	0.0000015
2281.5	0.0000023
2279.6	0.0000012
2277.6	-0.0000018
2275.7	-0.0000078
2273.8	-0.0000135
2271.8	-0.0000104
2269.9	-0.0000013
2268.0	0.0000012
2266.1	-0.0000031
2264.1	-0.0000076
2262.2	-0.0000113
2260.3	-0.0000134
2258.3	-0.0000143
2256.4	-0.0000149
2254.5	-0.0000150
2252.6	-0.0000148
2250.6	-0.0000154
2248.7	-0.0000184
2246.8	-0.0000212
2244.8	-0.0000219
2242.9	-0.0000245
2241.0	-0.0000279
2239.1	-0.0000291
2237.1	-0.0000324
2235.2	-0.0000389
2233.3	-0.0000413
2231.3	-0.0000385
2229.4	-0.0000370
2227.5	-0.0000361
2225.6	-0.0000304
2223.6	-0.0000237
2221.7	-0.0000239
2219.8	-0.0000297
2217.8	-0.0000353
2215.9	-0.0000375
2214.0	-0.0000354
2212.1	-0.0000328
2210.1	-0.0000311
2208.2	-0.0000283
2206.3	-0.0000253
2204.3	-0.0000245
2202.4	-0.0000264
2200.5	-0.0000288
2198.6	-0.0000286
2196.6	-0.0000273
2194.7	-0.0000266
2192.8	-0.0000257
2190.8	-0.0000245
2188.9	-0.0000210
2187.0	-0.0000171
2185.1	-0.0000147
2183.1	-0.0000110
2181.2	-0.0000081
2179.3	-0.0000079
2177.3	-0.0000073
2175.4	-0.0000067
2173.5	-0.0000084
2171.6	-0.0000086
2169.6	-0.0000087
2167.7	-0.0000075
2165.8	-0.0000017
2163.8	0.0000014
2161.9	-0.0000012
2160.0	0.0000001
2158.1	0.0000057
2156.1	0.0000073
2154.2	0.0000067
2152.3	0.0000120
2150.3	0.0000198
2148.4	0.0000240
2146.5	0.0000251
2144.6	0.0000284
2142.6	0.0000344
2140.7	0.0000394
2138.8	0.0000436
2136.8	0.0000496
2134.9	0.0000577
2133.0	0.0000637
2131.1	0.0000680
2129.1	0.0000750
2127.2	0.0000843
2125.3	0.0000948
2123.3	0.0001060
2121.4	0.0001196
2119.5	0.0001386
2117.6	0.0001644
2115.6	0.0001932
2113.7	0.0002230
2111.8	0.0002596
2109.8	0.0003097
2107.9	0.0003765
2106.0	0.0004623
2104.1	0.0005864
2102.1	0.0007905
2100.2	0.0011721
2098.3	0.0020429
2096.3	0.0041711
2094.4	0.0079892
2092.5	0.0116075
2090.6	0.0118347
2088.6	0.0085552
2086.7	0.0048428
2084.8	0.0027014
2082.8	0.0018159
2080.9	0.0013773
2079.0	0.0010516
2077.1	0.0007866
2075.1	0.0005841
2073.2	0.0004363
2071.3	0.0003286
2069.3	0.0002552
2067.4	0.0002058
2065.5	0.0001697
2063.6	0.0001411
2061.6	0.0001112
2059.7	0.0000789
2057.8	0.0000560
2055.8	0.0000490
2053.9	0.0000486
2052.0	0.0000450
2050.1	0.0000330
2048.1	0.0000146
2046.2	-0.0000008
2044.3	-0.0000103
2042.3	-0.0000208
2040.4	-0.0000391
2038.5	-0.0000571
2036.6	-0.0000624
2034.6	-0.0000551
2032.7	-0.0000466
2030.8	-0.0000442
2028.8	-0.0000428
2026.9	-0.0000396
2025.0	-0.0000344
2023.1	-0.0000266
2021.1	-0.0000207
2019.2	-0.0000172
2017.3	-0.0000161
2015.3	-0.0000208
2013.4	-0.0000291
2011.5	-0.0000350
2009.6	-0.0000362
2007.6	-0.0000343
2005.7	-0.0000358
2003.8	-0.0000421
2001.8	-0.0000488
1999.9	-0.0000558
1998.0	-0.0000617
1996.1	-0.0000611
1994.1	-0.0000505
1992.2	-0.0000396
1990.3	-0.0000405
1988.3	-0.0000486
1986.4	-0.0000559
1984.5	-0.0000586
1982.6	-0.0000552
1980.6	-0.0000521
1978.7	-0.0000537
1976.8	-0.0000553
1974.8	-0.0000549
1972.9	-0.0000547
1971.0	-0.0000484
1969.1	-0.0000337
1967.1	-0.0000276
1965.2	-0.0000352
1963.3	-0.0000411
1961.4	-0.0000428
1959.4	-0.0000456
1957.5	-0.0000456
1955.6	-0.0000422
1953.6	-0.0000405
1951.7	-0.0000396
1949.8	-0.0000348
1947.9	-0.0000281
1945.9	-0.0000202
1944.0	-0.0000079
1942.1	-0.0000038
1940.1	-0.0000150
1938.2	-0.0000236
1936.3	-0.0000202
1934.4	-0.0000130
1932.4	-0.0000063
1930.5	-0.0000044
1928.6	-0.0000040
1926.6	0.0000080
1924.7	0.0000304
1922.8	0.0000476
1920.9	0.0000675
1918.9	0.0000965
1917.0	0.0001109
1915.1	0.0001194
1913.1	0.0001652
1911.2	0.0002681
1909.3	0.0004377
1907.4	0.0006962
1905.4	0.0010498
1903.5	0.0014562
1901.6	0.0018281
1899.6	0.0020759
1897.7	0.0021587
1895.8	0.0021012
1893.9	0.0019614
1891.9	0.0017930
1890.0	0.0016168
1888.1	0.0014331
1886.1	0.0012646
1884.2	0.0011346
1882.3	0.0010324
1880.4	0.0009395
1878.4	0.0008507
1876.5	0.0007662
1874.6	0.0006853
1872.6	0.0006222
1870.7	0.0005816
1868.8	0.0005183
1866.9	0.0004071
1864.9	0.0002949
1863.0	0.0002147
1861.1	0.0001556
1859.1	0.0001075
1857.2	0.0000697
1855.3	0.0000435
1853.4	0.0000247
1851.4	0.0000107
1849.5	0.0000045
1847.6	0.0000250
1845.6	0.0000739
1843.7	0.0000766
1841.8	0.0000041
1839.9	-0.0000576
1837.9	-0.0000703
1836.0	-0.0000704
1834.1	-0.0000638
1832.1	-0.0000343
1830.2	-0.0000092
1828.3	-0.0000164
1826.4	-0.0000293
1824.4	-0.0000420
1822.5	-0.0000675
1820.6	-0.0000849
1818.6	-0.0000845
1816.7	-0.0000822
1814.8	-0.0000812
1812.9	-0.0000719
1810.9	-0.0000624
1809.0	-0.0000713
1807.1	-0.0000901
1805.1	-0.0000935
1803.2	-0.0000717
1801.3	-0.0000456
1799.4	-0.0000446
1797.4	-0.0000593
1795.5	-0.0000440
1793.6	-0.0000000
1791.6	0.0000039
1789.7	-0.0000445
1787.8	-0.0000747
1785.9	-0.0000657
1783.9	-0.0000609
1782.0	-0.0000701
1780.1	-0.0000772
1778.1	-0.0000791
1776.2	-0.0000366
1774.3	0.0000742
1772.4	0.0001456
1770.4	0.0000951
1768.5	0.0000068
1766.6	-0.0000465
1764.6	-0.0000560
1762.7	-0.0000336
1760.8	-0.0000280
1758.9	-0.0000391
1756.9	-0.0000432
1755.0	-0.0000300
1753.1	0.0000305
1751.1	0.0000880
1749.2	0.0000644
1747.3	0.0000033
1745.4	-0.0000268
1743.4	-0.0000198
1741.5	0.0000097
1739.6	0.0000338
1737.6	0.0000899
1735.7	0.0002202
1733.8	0.0002700
1731.9	0.0001443
1729.9	0.0000083
1728.0	-0.0000449
1726.1	-0.0000607
1724.1	-0.0000638
1722.2	-0.0000323
1720.3	0.0000999
1718.4	0.0002783
1716.4	0.0003045
1714.5	0.0001593
1712.6	0.0000188
1710.6	-0.0000326
1708.7	-0.0000139
1706.8	0.0000373
1704.9	0.0000897
1702.9	0.0001910
1701.0	0.0003214
1699.1	0.0003535
1697.1	0.0003083
1695.2	0.0002188
1693.3	0.0000703
1691.4	-0.0000254
1689.4	-0.0000038
1687.5	0.0001519
1685.6	0.0003618
1683.6	0.0003608
1681.7	0.0001497
1679.8	0.0000031
1677.9	0.0000202
1675.9	0.0000891
1674.0	0.0000959
1672.1	0.0000883
1670.1	0.0001122
1668.2	0.0000846
1666.3	0.0000227
1664.4	0.0000160
1662.4	0.0000229
1660.5	-0.0000050
1658.6	-0.0000057
1656.6	0.0001566
1654.7	0.0004971
1652.8	0.0006490
1650.9	0.0004273
1648.9	0.0002409
1647.0	0.0002538
1645.1	0.0002062
1643.1	0.0000655
1641.2	-0.0000107
1639.3	0.0000367
1637.4	0.0001735
1635.4	0.0002382
1633.5	0.0001303
1631.6	0.0000055
1629.6	-0.0000191
1627.7	-0.0000002
1625.8	0.0000275
1623.9	0.0000497
1621.9	0.0000374
1620.0	0.0000737
1618.1	0.0002037
1616.1	0.0002370
1614.2	0.0001062
1612.3	0.0000002
1610.4	-0.0000160
1608.4	-0.0000138
1606.5	-0.0000186
1604.6	-0.0000202
1602.6	-0.0000172
1600.7	-0.0000195
1598.8	-0.0000259
1596.9	-0.0000275
1594.9	-0.0000257
1593.0	-0.0000260
1591.1	-0.0000239
1589.1	-0.0000172
1587.2	-0.0000150
1585.3	-0.0000223
1583.4	-0.0000279
1581.4	-0.0000123
1579.5	0.0000863
1577.6	0.0002656
1575.6	0.0003152
1573.7	0.0001863
1571.8	0.0001233
1569.9	0.0001501
1567.9	0.0001178
1566.0	0.0000610
1564.1	0.0000831
1562.1	0.0002655
1560.2	0.0005461
1558.3	0.0006317
1556.4	0.0004591
1554.4	0.0002703
1552.5	0.0001587
1550.6	0.0000939
1548.6	0.0000739
1546.7	0.0001152
1544.8	0.0002393
1542.9	0.0004341
1540.9	0.0005906
1539.0	0.0005227
1537.1	0.0003013
1535.1	0.0001929
1533.2	0.0001789
1531.3	0.0001239
1529.4	0.0000847
1527.4	0.0001099
1525.5	0.0001729
1523.6	0.0002830
1521.6	0.0003667
1519.7	0.0003214
1517.8	0.0002148
1515.9	0.0001349
1513.9	0.0000928
1512.0	0.0001076
1510.1	0.0002296
1508.1	0.0004505
1506.2	0.0005368
1504.3	0.0003426
1502.4	0.0001224
1500.4	0.0000855
1498.5	0.0001477
1496.6	0.0001693
1494.6	0.0001224
1492.7	0.0000938
1490.8	0.0001173
1488.9	0.0001172
1486.9	0.0000680
1485.0	0.0000232
1483.1	0.0000141
1481.1	0.0000233
1479.2	0.0000406
1477.3	0.0000800
1475.4	0.0001427
1473.4	0.0001897
1471.5	0.0001555
1469.6	0.0000718
1467.6	0.0000560
1465.7	0.0000969
1463.8	0.0000916
1461.9	0.0000758
1459.9	0.0001877
1458.0	0.0003643
1456.1	0.0003561
1454.1	0.0001689
1452.2	0.0000368
1450.3	0.0000244
1448.4	0.0000418
1446.4	0.0000233
1444.5	-0.0000155
1442.6	-0.0000255
1440.6	0.0000211
1438.7	0.0001255
1436.8	0.0001898
1434.9	0.0001285
1432.9	0.0000419
1431.0	0.0000225
1429.1	0.0000240
1427.1	0.0000172
1425.2	0.0000199
1423.3	0.0000515
1421.4	0.0001351
1419.4	0.0001960
1417.5	0.0001366
1415.6	0.0000390
1413.6	0.0000066
1411.7	0.0000103
1409.8	0.0000087
1407.9	0.0000134
1405.9	0.0000340
1404.0	0.0000445
1402.1	0.0000508
1400.1	0.0000756
1398.2	0.0000999
1396.3	0.0001176
1394.4	0.0001134
1392.4	0.0000644
1390.5	0.0000246
1388.6	0.0000282
1386.6	0.0000221
1384.7	-0.0000105
1382.8	-0.0000264
1380.9	-0.0000172
1378.9	-0.0000027
1377.0	0.0000152
1375.1	0.0000291
1373.1	0.0000222
1371.2	0.0000077
1369.3	0.0000040
1367.4	0.0000036
1365.4	0.0000084
1363.5	0.0000249
1361.6	0.0000343
1359.6	0.0000251
1357.7	0.0000149
1355.8	0.0000102
1353.9	-0.0000015
1351.9	-0.0000119
1350.0	-0.0000098
1348.1	-0.0000070
1346.1	-0.0000088
1344.2	-0.0000016
1342.3	0.0000216
1340.4	0.0000449
1338.4	0.0000474
1336.5	0.0000334
1334.6	0.0000207
1332.6	0.0000136
1330.7	0.0000094
1328.8	0.0000092
1326.9	0.0000098
1324.9	0.0000073
1323.0	0.0000063
1321.1	0.0000134
1319.1	0.0000198
1317.2	0.0000145
1315.3	0.0000036
1313.4	-0.0000019
1311.4	0.0000026
1309.5	0.0000098
1307.6	0.0000089
1305.6	0.0000026
1303.7	-0.0000020
1301.8	-0.0000007
1299.9	0.0000072
1297.9	0.0000153
1296.0	0.0000196
1294.1	0.0000211
1292.1	0.0000198
1290.2	0.0000178
1288.3	0.0000185
1286.4	0.0000188
1284.4	0.0000158
1282.5	0.0000127
1280.6	0.0000119
1278.6	0.0000149
1276.7	0.0000202
1274.8	0.0000207
1272.9	0.0000201
1270.9	0.0000262
1269.0	0.0000325
1267.1	0.0000347
1265.1	0.0000363
1263.2	0.0000368
1261.3	0.0000380
1259.4	0.0000424
1257.4	0.0000449
1255.5	0.0000416
1253.6	0.0000380
1251.6	0.0000362
1249.7	0.0000319
1247.8	0.0000286
1245.9	0.0000309
1243.9	0.0000347
1242.0	0.0000349
1240.1	0.0000310
1238.1	0.0000292
1236.2	0.0000326
1234.3	0.0000332
1232.4	0.0000271
1230.4	0.0000230
1228.5	0.0000286
1226.6	0.0000415
1224.6	0.0000505
1222.7	0.0000480
1220.8	0.0000412
1218.9	0.0000353
1216.9	0.0000273
1215.0	0.0000221
1213.1	0.0000257
1211.1	0.0000339
1209.2	0.0000396
1207.3	0.0000422
1205.4	0.0000440
1203.4	0.0000435
1201.5	0.0000417
1199.6	0.0000426
1197.6	0.0000406
1195.7	0.0000318
1193.8	0.0000248
1191.9	0.0000250
1189.9	0.0000275
1188.0	0.0000276
1186.1	0.0000210
1184.1	0.0000034
1182.2	-0.0000085
1180.3	0.0000150
1178.4	0.0000519
1176.4	0.0000570
1174.5	0.0000412
1172.6	0.0000327
1170.6	0.0000295
1168.7	0.0000231
1166.8	0.0000156
1164.9	0.0000122
1162.9	0.0000122
1161.0	0.0000138
1159.1	0.0000205
1157.1	0.0000300
1155.2	0.0000326
1153.3	0.0000255
1151.4	0.0000184
1149.4	0.0000175
1147.5	0.0000152
1145.6	0.0000081
1143.6	0.0000087
1141.7	0.0000249
1139.8	0.0000397
1137.9	0.0000371
1135.9	0.0000290
1134.0	0.0000219
1132.1	0.0000087
1130.1	-0.0000028
1128.2	-0.0000011
1126.3	0.0000088
1124.4	0.0000161
1122.4	0.0000171
1120.5	0.0000160
1118.6	0.0000156
1116.6	0.0000125
1114.7	0.0000106
1112.8	0.0000133
1110.9	0.0000110
1108.9	0.0000029
1107.0	0.0000023
1105.1	0.0000094
1103.1	0.0000106
1101.2	0.0000028
1099.3	-0.0000048
1097.4	-0.0000098
1095.4	-0.0000160
1093.5	-0.0000183
1091.6	-0.0000101
1089.6	-0.0000012
1087.7	-0.0000031
1085.8	-0.0000080
1083.9	-0.0000078
1081.9	-0.0000104
1080.0	-0.0000192
1078.1	-0.0000256
1076.1	-0.0000230
1074.2	-0.0000140
1072.3	-0.0000039
1070.4	0.0000063
1068.4	0.0000122
1066.5	0.0000070
1064.6	-0.0000005
1062.6	0.0000002
1060.7	0.0000021
1058.8	-0.0000031
1056.9	-0.0000118
1054.9	-0.0000130
1053.0	-0.0000085
1051.1	-0.0000077
1049.1	-0.0000101
1047.2	-0.0000111
1045.3	-0.0000089
1043.4	-0.0000075
1041.4	-0.0000113
1039.5	-0.0000170
1037.6	-0.0000216
1035.6	-0.0000288
1033.7	-0.0000321
1031.8	-0.0000206
1029.9	-0.0000052
1027.9	-0.0000020
1026.0	-0.0000078
1024.1	-0.0000138
1022.1	-0.0000118
1020.2	0.0000002
1018.3	0.0000118
1016.4	0.0000097
1014.4	-0.0000032
1012.5	-0.0000103
1010.6	-0.0000033
1008.6	0.0000107
1006.7	0.0000218
1004.8	0.0000232
1002.9	0.0000149
1000.9	0.0000042
999.0	0.0000008
997.1	0.0000057
995.1	0.0000098
993.2	0.0000086
991.3	0.0000090
989.4	0.0000172
987.4	0.0000256
985.5	0.0000236
983.6	0.0000203
981.6	0.0000281
979.7	0.0000409
977.8	0.0000482
975.9	0.0000473
973.9	0.0000378
972.0	0.0000215
970.1	0.0000095
968.1	0.0000130
966.2	0.0000214
964.3	0.0000164
962.4	0.0000075
960.4	0.0000071
958.5	0.0000037
956.6	-0.0000013
954.6	0.0000037
952.7	0.0000060
950.8	0.0000002
948.9	-0.0000062
946.9	-0.0000137
945.0	-0.0000192
943.1	-0.0000223
941.1	-0.0000264
939.2	-0.0000225
937.3	-0.0000120
935.4	-0.0000132
933.4	-0.0000280
931.5	-0.0000441
929.6	-0.0000584
927.6	-0.0000727
925.7	-0.0000828
923.8	-0.0000819
921.9	-0.0000749
919.9	-0.0000750
918.0	-0.0000824
916.1	-0.0000857
914.1	-0.0000859
912.2	-0.0000901
910.3	-0.0000940
908.4	-0.0000967
906.4	-0.0001018
904.5	-0.0001061
902.6	-0.0001082
900.6	-0.0001101
898.7	-0.0001166
896.8	-0.0001319
894.9	-0.0001445
892.9	-0.0001370
891.0	-0.0001218
889.1	-0.0001207
887.1	-0.0001256
885.2	-0.0001251
883.3	-0.0001183
881.4	-0.0001102
879.4	-0.0001105
877.5	-0.0001145
875.6	-0.0001170
873.6	-0.0001191
871.7	-0.0001164
869.8	-0.0001135
867.9	-0.0001209
865.9	-0.0001446
864.0	-0.0001737
862.1	-0.0001735
860.1	-0.0001425
858.2	-0.0001286
856.3	-0.0001409
854.4	-0.0001385
852.4	-0.0001129
850.5	-0.0000994
848.6	-0.0001056
846.6	-0.0000980
844.7	-0.0000724
842.8	-0.0000598
840.9	-0.0000760
838.9	-0.0001066
837.0	-0.0001165
835.1	-0.0001027
833.1	-0.0001011
831.2	-0.0001177
829.3	-0.0001292
827.4	-0.0001316
825.4	-0.0001235
823.5	-0.0000930
821.6	-0.0000555
819.6	-0.0000323
817.7	-0.0000197
815.8	-0.0000260
813.9	-0.0000397
811.9	-0.0000254
810.0	-0.0000036
808.1	-0.0000070
806.1	-0.0000172
804.2	-0.0000202
802.3	-0.0000258
800.4	-0.0000245
798.4	0.0000097
796.5	0.0000597
794.6	0.0000887
792.6	0.0001035
790.7	0.0001098
788.8	0.0001020
786.9	0.0000939
784.9	0.0000807
783.0	0.0000541
781.1	0.0000359
779.1	0.0000406
777.2	0.0000633
775.3	0.0000664
773.4	0.0000273
771.4	0.0000275
769.5	0.0001065
767.6	0.0001634
765.6	0.0001682
763.7	0.0001833
761.8	0.0002203
759.9	0.0002662
757.9	0.0003072
756.0	0.0003163
754.1	0.0002805
752.1	0.0002477
750.2	0.0002497
748.3	0.0002375
746.4	0.0002290
744.4	0.0002702
742.5	0.0002973
740.6	0.0002682
738.6	0.0002335
736.7	0.0002577
734.8	0.0003362
732.9	0.0003991
730.9	0.0004287
729.0	0.0004708
727.1	0.0005222
725.1	0.0005274
723.2	0.0004682
721.3	0.0004227
719.4	0.0004500
717.4	0.0004706
715.5	0.0004714
713.6	0.0005377
711.6	0.0006284
709.7	0.0006881
707.8	0.0007346
705.9	0.0007580
703.9	0.0007795
702.0	0.0008418
700.1	0.0008765
698.1	0.0008006
696.2	0.0006711
694.3	0.0005765
692.4	0.0005417
690.4	0.0005839
688.5	0.0007192
686.6	0.0008409
684.6	0.0008711
682.7	0.0009016
680.8	0.0009111
678.9	0.0008394
676.9	0.0007011
675.0	0.0005357
673.1	0.0005217
671.1	0.0007028
669.2	0.0009004
667.3	0.0010316
665.4	0.0011001
663.4	0.0010937
661.5	0.0009091
659.6	0.0005133
657.6	0.0002826
655.7	0.0006150
653.8	0.0012340
651.9	0.0014696
649.9	0.0011335
648.0	0.0007116
646.1	0.0006353
644.1	0.0007889
642.2	0.0009023
640.3	0.0008855
638.4	0.0008156
636.4	0.0007929
634.5	0.0007810
632.6	0.0007521
630.6	0.0007425
628.7	0.0007512
626.8	0.0007722
624.9	0.0008125
622.9	0.0008333
621.0	0.0007645
619.1	0.0006907
617.1	0.0007656
615.2	0.0008885
613.3	0.0008761
611.4	0.0007638
609.4	0.0007361
607.5	0.0008574
605.6	0.0009073
603.6	0.0007282
601.7	0.0005307
599.8	0.0005220
