3997.9	0.0000248
3996.0	0.0000274
3994.1	0.0000267
3992.1	0.0000271
3990.2	0.0000266
3988.3	0.0000176
3986.3	0.0000031
3984.4	-0.0000088
3982.5	-0.0000174
3980.6	-0.0000218
3978.6	-0.0000119
3976.7	0.0000112
3974.8	0.0000284
3972.8	0.0000267
3970.9	0.0000194
3969.0	0.0000191
3967.1	0.0000157
3965.1	0.0000074
3963.2	-0.0000014
3961.3	-0.0000100
3959.3	-0.0000163
3957.4	-0.0000205
3955.5	-0.0000213
3953.6	-0.0000027
3951.6	0.0000411
3949.7	0.0000784
3947.8	0.0000786
3945.8	0.0000667
3943.9	0.0000709
3942.0	0.0000576
3940.1	0.0000161
3938.1	-0.0000076
3936.2	0.0000176
3934.3	0.0000846
3932.3	0.0001285
3930.4	0.0000964
3928.5	0.0000442
3926.6	0.0000365
3924.6	0.0000558
3922.7	0.0000880
3920.8	0.0001503
3918.8	0.0001958
3916.9	0.0001524
3915.0	0.0000501
3913.1	-0.0000191
3911.1	-0.0000322
3909.2	0.0000068
3907.3	0.0001481
3905.3	0.0003571
3903.4	0.0004835
3901.5	0.0004672
3899.6	0.0003490
3897.6	0.0001808
3895.7	0.0000866
3893.8	0.0001573
3891.8	0.0002408
3889.9	0.0002232
3888.0	0.0002751
3886.1	0.0003838
3884.1	0.0003543
3882.2	0.0002973
3880.3	0.0002700
3878.3	0.0001733
3876.4	0.0001303
3874.5	0.0002189
3872.6	0.0004168
3870.6	0.0006125
3868.7	0.0006006
3866.8	0.0005160
3864.8	0.0005079
3862.9	0.0004161
3861.0	0.0002326
3859.1	0.0002097
3857.1	0.0006975
3855.2	0.0015806
3853.3	0.0019110
3851.3	0.0012565
3849.4	0.0004356
3847.5	0.0000944
3845.6	0.0001085
3843.6	0.0002224
3841.7	0.0004110
3839.8	0.0006951
3837.8	0.0008417
3835.9	0.0006912
3834.0	0.0004686
3832.1	0.0003280
3830.1	0.0002119
3828.2	0.0001385
3826.3	0.0001400
3824.3	0.0002673
3822.4	0.0005043
3820.5	0.0006093
3818.6	0.0006124
3816.6	0.0006318
3814.7	0.0004399
3812.8	0.0001296
3810.8	0.0000900
3808.9	0.0003423
3807.0	0.0005298
3805.1	0.0005447
3803.1	0.0006634
3801.2	0.0007283
3799.3	0.0005021
3797.3	0.0002683
3795.4	0.0001317
3793.5	0.0000010
3791.6	-0.0000652
3789.6	-0.0000668
3787.7	-0.0000465
3785.8	-0.0000195
3783.8	0.0000021
3781.9	0.0000541
3780.0	0.0001126
3778.1	0.0000800
3776.1	-0.0000054
3774.2	-0.0000118
3772.3	0.0000932
3770.3	0.0002020
3768.4	0.0002187
3766.5	0.0001804
3764.6	0.0001316
3762.6	0.0001407
3760.7	0.0002502
3758.8	0.0002986
3756.8	0.0002742
3754.9	0.0004571
3753.0	0.0009325
3751.1	0.0013259
3749.1	0.0013209
3747.2	0.0013439
3745.3	0.0015750
3743.3	0.0013101
3741.4	0.0006317
3739.5	0.0003876
3737.6	0.0006034
3735.6	0.0007895
3733.7	0.0007404
3731.8	0.0005069
3729.8	0.0002692
3727.9	0.0002045
3726.0	0.0002433
3724.1	0.0002271
3722.1	0.0001724
3720.2	0.0001115
3718.3	0.0000598
3716.3	0.0001285
3714.4	0.0004266
3712.5	0.0007202
3710.6	0.0006291
3708.6	0.0002881
3706.7	0.0000569
3704.8	0.0000486
3702.8	0.0001498
3700.9	0.0001553
3699.0	0.0000551
3697.1	-0.0000143
3695.1	0.0000261
3693.2	0.0002311
3691.3	0.0005904
3689.3	0.0008169
3687.4	0.0006128
3685.5	0.0002142
3683.6	0.0000178
3681.6	0.0000421
3679.7	0.0002381
3677.8	0.0006648
3675.8	0.0010090
3673.9	0.0009756
3672.0	0.0008832
3670.1	0.0007812
3668.1	0.0004331
3666.2	0.0000831
3664.3	-0.0000467
3662.3	-0.0000561
3660.4	0.0000180
3658.5	0.0002309
3656.6	0.0004053
3654.6	0.0003962
3652.7	0.0005278
3650.8	0.0008823
3648.8	0.0009675
3646.9	0.0006169
3645.0	0.0002161
3643.1	0.0000271
3641.1	-0.0000190
3639.2	-0.0000305
3637.3	-0.0000095
3635.3	0.0000533
3633.4	0.0002024
3631.5	0.0005515
3629.6	0.0008486
3627.6	0.0006605
3625.7	0.0002310
3623.8	0.0000584
3621.8	0.0001716
3619.9	0.0003241
3618.0	0.0003243
3616.1	0.0002587
3614.1	0.0002863
3612.2	0.0003714
3610.3	0.0004270
3608.3	0.0003671
3606.4	0.0001878
3604.5	0.0000489
3602.6	0.0000311
3600.6	0.0000524
3598.7	0.0000646
3596.8	0.0000881
3594.8	0.0001065
3592.9	0.0000928
3591.0	0.0001207
3589.1	0.0002298
3587.1	0.0002691
3585.2	0.0001606
3583.3	0.0000406
3581.3	-0.0000058
3579.4	-0.0000158
3577.5	-0.0000174
3575.6	-0.0000189
3573.6	-0.0000211
3571.7	0.0000262
3569.8	0.0001704
3567.8	0.0003060
3565.9	0.0002760
3564.0	0.0001339
3562.1	0.0000352
3560.1	0.0000048
3558.2	-0.0000047
3556.3	-0.0000046
3554.3	0.0000147
3552.4	0.0000262
3550.5	0.0000177
3548.6	0.0000394
3546.6	0.0000797
3544.7	0.0000659
3542.8	0.0000072
3540.8	-0.0000325
3538.9	-0.0000327
3537.0	-0.0000175
3535.1	-0.0000125
3533.1	-0.0000157
3531.2	-0.0000074
3529.3	0.0000149
3527.3	0.0000317
3525.4	0.0000343
3523.5	0.0000252
3521.6	0.0000039
3519.6	-0.0000214
3517.7	-0.0000390
3515.8	-0.0000447
3513.8	-0.0000356
3511.9	-0.0000148
3510.0	0.0000063
3508.1	0.0000161
3506.1	0.0000155
3504.2	0.0000167
3502.3	0.0000140
3500.3	0.0000011
3498.4	-0.0000044
3496.5	0.0000018
3494.6	0.0000059
3492.6	0.0000065
3490.7	0.0000089
3488.8	0.0000094
3486.8	0.0000072
3484.9	0.0000147
3483.0	0.0000326
3481.1	0.0000367
3479.1	0.0000199
3477.2	0.0000074
3475.3	0.0000101
3473.3	0.0000163
3471.4	0.0000163
3469.5	0.0000129
3467.6	0.0000151
3465.6	0.0000226
3463.7	0.0000308
3461.8	0.0000339
3459.8	0.0000251
3457.9	0.0000149
3456.0	0.0000083
3454.1	-0.0000031
3452.1	-0.0000147
3450.2	-0.0000067
3448.3	0.0000202
3446.3	0.0000396
3444.4	0.0000389
3442.5	0.0000298
3440.6	0.0000200
3438.6	0.0000141
3436.7	0.0000167
3434.8	0.0000224
3432.8	0.0000271
3430.9	0.0000274
3429.0	0.0000212
3427.1	0.0000138
3425.1	0.0000121
3423.2	0.0000195
3421.3	0.0000261
3419.3	0.0000188
3417.4	0.0000049
3415.5	-0.0000025
3413.6	-0.0000055
3411.6	-0.0000085
3409.7	-0.0000104
3407.8	-0.0000118
3405.8	-0.0000047
3403.9	0.0000120
3402.0	0.0000169
3400.1	0.0000071
3398.1	-0.0000001
3396.2	-0.0000021
3394.3	0.0000029
3392.3	0.0000126
3390.4	0.0000112
3388.5	-0.0000044
3386.6	-0.0000165
3384.6	-0.0000112
3382.7	-0.0000003
3380.8	-0.0000000
3378.8	-0.0000069
3376.9	-0.0000163
3375.0	-0.0000211
3373.1	-0.0000076
3371.1	0.0000166
3369.2	0.0000264
3367.3	0.0000135
3365.3	-0.0000075
3363.4	-0.0000214
3361.5	-0.0000214
3359.6	-0.0000133
3357.6	-0.0000080
3355.7	-0.0000085
3353.8	-0.0000164
3351.8	-0.0000313
3349.9	-0.0000439
3348.0	-0.0000473
3346.1	-0.0000468
3344.1	-0.0000429
3342.2	-0.0000316
3340.3	-0.0000249
3338.3	-0.0000326
3336.4	-0.0000423
3334.5	-0.0000437
3332.6	-0.0000404
3330.6	-0.0000376
3328.7	-0.0000332
3326.8	-0.0000272
3324.8	-0.0000285
3322.9	-0.0000382
3321.0	-0.0000479
3319.1	-0.0000502
3317.1	-0.0000456
3315.2	-0.0000443
3313.3	-0.0000490
3311.3	-0.0000466
3309.4	-0.0000346
3307.5	-0.0000242
3305.6	-0.0000206
3303.6	-0.0000231
3301.7	-0.0000279
3299.8	-0.0000330
3297.8	-0.0000460
3295.9	-0.0000627
3294.0	-0.0000624
3292.1	-0.0000442
3290.1	-0.0000328
3288.2	-0.0000340
3286.3	-0.0000345
3284.3	-0.0000335
3282.4	-0.0000347
3280.5	-0.0000363
3278.6	-0.0000356
3276.6	-0.0000311
3274.7	-0.0000275
3272.8	-0.0000300
3270.8	-0.0000321
3268.9	-0.0000256
3267.0	-0.0000145
3265.1	-0.0000071
3263.1	-0.0000080
3261.2	-0.0000141
3259.3	-0.0000169
3257.3	-0.0000148
3255.4	-0.0000140
3253.5	-0.0000216
3251.6	-0.0000339
3249.6	-0.0000364
3247.7	-0.0000227
3245.8	-0.0000097
3243.8	-0.0000111
3241.9	-0.0000158
3240.0	-0.0000147
3238.1	-0.0000097
3236.1	-0.0000045
3234.2	0.0000044
3232.3	0.0000120
3230.3	0.0000122
3228.4	0.0000037
3226.5	-0.0000017
3224.6	0.0000090
3222.6	0.0000225
3220.7	0.0000259
3218.8	0.0000296
3216.8	0.0000361
3214.9	0.0000350
3213.0	0.0000287
3211.1	0.0000268
3209.1	0.0000263
3207.2	0.0000211
3205.3	0.0000162
3203.3	0.0000183
3201.4	0.0000253
3199.5	0.0000297
3197.6	0.0000317
3195.6	0.0000316
3193.7	0.0000244
3191.8	0.0000167
3189.8	0.0000178
3187.9	0.0000229
3186.0	0.0000261
3184.1	0.0000285
3182.1	0.0000310
3180.2	0.0000325
3178.3	0.0000298
3176.3	0.0000247
3174.4	0.0000210
3172.5	0.0000215
3170.6	0.0000290
3168.6	0.0000378
3166.7	0.0000447
3164.8	0.0000493
3162.8	0.0000453
3160.9	0.0000402
3159.0	0.0000440
3157.1	0.0000482
3155.1	0.0000472
3153.2	0.0000481
3151.3	0.0000517
3149.3	0.0000527
3147.4	0.0000514
3145.5	0.0000512
3143.6	0.0000499
3141.6	0.0000472
3139.7	0.0000496
3137.8	0.0000561
3135.8	0.0000587
3133.9	0.0000522
3132.0	0.0000381
3130.1	0.0000307
3128.1	0.0000359
3126.2	0.0000408
3124.3	0.0000412
3122.3	0.0000477
3120.4	0.0000613
3118.5	0.0000695
3116.6	0.0000663
3114.6	0.0000564
3112.7	0.0000477
3110.8	0.0000432
3108.8	0.0000403
3106.9	0.0000320
3105.0	0.0000218
3103.1	0.0000233
3101.1	0.0000325
3099.2	0.0000320
3097.3	0.0000229
3095.3	0.0000172
3093.4	0.0000168
3091.5	0.0000170
3089.6	0.0000167
3087.6	0.0000177
3085.7	0.0000229
3083.8	0.0000271
3081.8	0.0000290
3079.9	0.0000225
3078.0	0.0000056
3076.1	-0.0000082
3074.1	-0.0000078
3072.2	-0.0000009
3070.3	0.0000051
3068.3	0.0000058
3066.4	0.0000004
3064.5	-0.0000020
3062.6	-0.0000005
3060.6	-0.0000011
3058.7	-0.0000014
3056.8	-0.0000013
3054.8	-0.0000062
3052.9	-0.0000142
3051.0	-0.0000205
3049.1	-0.0000209
3047.1	-0.0000160
3045.2	-0.0000139
3043.3	-0.0000207
3041.3	-0.0000334
3039.4	-0.0000408
3037.5	-0.0000335
3035.6	-0.0000201
3033.6	-0.0000134
3031.7	-0.0000133
3029.8	-0.0000194
3027.8	-0.0000296
3025.9	-0.0000333
3024.0	-0.0000288
3022.1	-0.0000290
3020.1	-0.0000452
3018.2	-0.0000671
3016.3	-0.0000720
3014.3	-0.0000536
3012.4	-0.0000257
3010.5	-0.0000075
3008.6	-0.0000103
3006.6	-0.0000238
3004.7	-0.0000251
3002.8	-0.0000156
3000.8	-0.0000154
2998.9	-0.0000259
2997.0	-0.0000343
2995.1	-0.0000358
2993.1	-0.0000358
2991.2	-0.0000409
2989.3	-0.0000472
2987.3	-0.0000478
2985.4	-0.0000449
2983.5	-0.0000397
2981.6	-0.0000320
2979.6	-0.0000267
2977.7	-0.0000261
2975.8	-0.0000260
2973.8	-0.0000255
2971.9	-0.0000303
2970.0	-0.0000389
2968.1	-0.0000398
2966.1	-0.0000340
2964.2	-0.0000305
2962.3	-0.0000311
2960.3	-0.0000340
2958.4	-0.0000340
2956.5	-0.0000272
2954.6	-0.0000192
2952.6	-0.0000199
2950.7	-0.0000294
2948.8	-0.0000365
2946.8	-0.0000355
2944.9	-0.0000282
2943.0	-0.0000192
2941.1	-0.0000174
2939.1	-0.0000278
2937.2	-0.0000443
2935.3	-0.0000519
2933.3	-0.0000444
2931.4	-0.0000320
2929.5	-0.0000230
2927.6	-0.0000146
2925.6	-0.0000105
2923.7	-0.0000197
2921.8	-0.0000325
2919.8	-0.0000371
2917.9	-0.0000346
2916.0	-0.0000318
2914.1	-0.0000357
2912.1	-0.0000438
2910.2	-0.0000471
2908.3	-0.0000465
2906.3	-0.0000465
2904.4	-0.0000434
2902.5	-0.0000371
2900.6	-0.0000381
2898.6	-0.0000475
2896.7	-0.0000529
2894.8	-0.0000476
2892.8	-0.0000395
2890.9	-0.0000393
2889.0	-0.0000470
2887.1	-0.0000565
2885.1	-0.0000606
2883.2	-0.0000535
2881.3	-0.0000415
2879.3	-0.0000359
2877.4	-0.0000341
2875.5	-0.0000302
2873.6	-0.0000271
2871.6	-0.0000271
2869.7	-0.0000286
2867.8	-0.0000362
2865.8	-0.0000477
2863.9	-0.0000508
2862.0	-0.0000423
2860.1	-0.0000316
2858.1	-0.0000282
2856.2	-0.0000325
2854.3	-0.0000329
2852.3	-0.0000270
2850.4	-0.0000298
2848.5	-0.0000428
2846.6	-0.0000477
2844.6	-0.0000405
2842.7	-0.0000352
2840.8	-0.0000369
2838.8	-0.0000388
2836.9	-0.0000401
2835.0	-0.0000464
2833.1	-0.0000518
2831.1	-0.0000490
2829.2	-0.0000456
2827.3	-0.0000480
2825.3	-0.0000534
2823.4	-0.0000573
2821.5	-0.0000538
2819.6	-0.0000441
2817.6	-0.0000376
2815.7	-0.0000363
2813.8	-0.0000384
2811.8	-0.0000452
2809.9	-0.0000497
2808.0	-0.0000461
2806.1	-0.0000426
2804.1	-0.0000466
2802.2	-0.0000529
2800.3	-0.0000529
2798.3	-0.0000493
2796.4	-0.0000473
2794.5	-0.0000442
2792.6	-0.0000418
2790.6	-0.0000440
2788.7	-0.0000470
2786.8	-0.0000476
2784.8	-0.0000485
2782.9	-0.0000474
2781.0	-0.0000423
2779.1	-0.0000423
2777.1	-0.0000480
2775.2	-0.0000471
2773.3	-0.0000416
2771.3	-0.0000429
2769.4	-0.0000470
2767.5	-0.0000460
2765.6	-0.0000405
2763.6	-0.0000355
2761.7	-0.0000378
2759.8	-0.0000460
2757.8	-0.0000508
2755.9	-0.0000533
2754.0	-0.0000548
2752.1	-0.0000477
2750.1	-0.0000351
2748.2	-0.0000298
2746.3	-0.0000338
2744.3	-0.0000428
2742.4	-0.0000517
2740.5	-0.0000535
2738.6	-0.0000498
2736.6	-0.0000469
2734.7	-0.0000446
2732.8	-0.0000409
2730.8	-0.0000362
2728.9	-0.0000304
2727.0	-0.0000284
2725.1	-0.0000338
2723.1	-0.0000414
2721.2	-0.0000434
2719.3	-0.0000377
2717.3	-0.0000327
2715.4	-0.0000360
2713.5	-0.0000413
2711.6	-0.0000398
2709.6	-0.0000332
2707.7	-0.0000329
2705.8	-0.0000414
2703.8	-0.0000450
2701.9	-0.0000396
2700.0	-0.0000372
2698.1	-0.0000420
2696.1	-0.0000477
2694.2	-0.0000516
2692.3	-0.0000490
2690.3	-0.0000402
2688.4	-0.0000375
2686.5	-0.0000420
2684.6	-0.0000400
2682.6	-0.0000292
2680.7	-0.0000223
2678.8	-0.0000256
2676.8	-0.0000328
2674.9	-0.0000380
2673.0	-0.0000418
2671.1	-0.0000450
2669.1	-0.0000442
2667.2	-0.0000417
2665.3	-0.0000383
2663.3	-0.0000311
2661.4	-0.0000281
2659.5	-0.0000326
2657.6	-0.0000362
2655.6	-0.0000353
2653.7	-0.0000289
2651.8	-0.0000208
2649.8	-0.0000194
2647.9	-0.0000257
2646.0	-0.0000320
2644.1	-0.0000312
2642.1	-0.0000241
2640.2	-0.0000210
2638.3	-0.0000253
2636.3	-0.0000282
2634.4	-0.0000262
2632.5	-0.0000246
2630.6	-0.0000254
2628.6	-0.0000269
2626.7	-0.0000278
2624.8	-0.0000271
2622.8	-0.0000226
2620.9	-0.0000183
2619.0	-0.0000199
2617.1	-0.0000234
2615.1	-0.0000217
2613.2	-0.0000197
2611.3	-0.0000242
2609.3	-0.0000289
2607.4	-0.0000289
2605.5	-0.0000277
2603.6	-0.0000265
2601.6	-0.0000265
2599.7	-0.0000312
2597.8	-0.0000335
2595.8	-0.0000248
2593.9	-0.0000173
2592.0	-0.0000194
2590.1	-0.0000189
2588.1	-0.0000148
2586.2	-0.0000147
2584.3	-0.0000162
2582.3	-0.0000174
2580.4	-0.0000179
2578.5	-0.0000183
2576.6	-0.0000240
2574.6	-0.0000312
2572.7	-0.0000285
2570.8	-0.0000183
2568.8	-0.0000138
2566.9	-0.0000190
2565.0	-0.0000245
2563.1	-0.0000207
2561.1	-0.0000097
2559.2	-0.0000024
2557.3	-0.0000066
2555.3	-0.0000161
2553.4	-0.0000210
2551.5	-0.0000210
2549.6	-0.0000188
2547.6	-0.0000156
2545.7	-0.0000121
2543.8	-0.0000086
2541.8	-0.0000104
2539.9	-0.0000185
2538.0	-0.0000226
2536.1	-0.0000185
2534.1	-0.0000120
2532.2	-0.0000069
2530.3	-0.0000069
2528.3	-0.0000119
2526.4	-0.0000144
2524.5	-0.0000110
2522.6	-0.0000051
2520.6	-0.0000038
2518.7	-0.0000079
2516.8	-0.0000093
2514.8	-0.0000076
2512.9	-0.0000102
2511.0	-0.0000161
2509.1	-0.0000166
2507.1	-0.0000079
2505.2	0.0000003
2503.3	-0.0000007
2501.3	-0.0000045
2499.4	-0.0000057
2497.5	-0.0000073
2495.6	-0.0000075
2493.6	-0.0000027
2491.7	0.0000033
2489.8	0.0000045
2487.8	-0.0000011
2485.9	-0.0000081
2484.0	-0.0000093
2482.1	-0.0000053
2480.1	-0.0000002
2478.2	0.0000030
2476.3	0.0000043
2474.3	0.0000063
2472.4	0.0000056
2470.5	-0.0000002
2468.6	-0.0000061
2466.6	-0.0000048
2464.7	0.0000013
2462.8	0.0000057
2460.8	0.0000082
2458.9	0.0000088
2457.0	0.0000045
2455.1	-0.0000063
2453.1	-0.0000141
2451.2	-0.0000080
2449.3	0.0000039
2447.3	0.0000082
2445.4	0.0000061
2443.5	0.0000053
2441.6	0.0000085
2439.6	0.0000117
2437.7	0.0000124
2435.8	0.0000103
2433.8	0.0000053
2431.9	0.0000014
2430.0	0.0000027
2428.1	0.0000055
2426.1	0.0000069
2424.2	0.0000075
2422.3	0.0000024
2420.3	-0.0000038
2418.4	-0.0000009
2416.5	0.0000020
2414.6	0.0000015
2412.6	0.0000052
2410.7	0.0000084
2408.8	0.0000064
2406.8	0.0000035
2404.9	0.0000014
2403.0	0.0000012
2401.1	0.0000020
2399.1	0.0000016
2397.2	0.0000017
2395.3	0.0000037
2393.3	0.0000066
2391.4	0.0000077
2389.5	0.0000068
2387.6	0.0000080
2385.6	0.0000138
2383.7	0.0000182
2381.8	0.0000163
2379.8	0.0000195
2377.9	0.0000356
2376.0	0.0000522
2374.1	0.0000667
2372.1	0.0000854
2370.2	0.0001046
2368.3	0.0001221
2366.3	0.0001394
2364.4	0.0001537
2362.5	0.0001605
2360.6	0.0001593
2358.6	0.0001521
2356.7	0.0001393
2354.8	0.0001213
2352.8	0.0000947
2350.9	0.0000621
2349.0	0.0000439
2347.1	0.0000534
2345.1	0.0000780
2343.2	0.0000989
2341.3	0.0001091
2339.3	0.0001151
2337.4	0.0001238
2335.5	0.0001289
2333.6	0.0001226
2331.6	0.0001124
2329.7	0.0001095
2327.8	0.0001092
2325.8	0.0001002
2323.9	0.0000872
2322.0	0.0000789
2320.1	0.0000735
2318.1	0.0000670
2316.2	0.0000570
2314.3	0.0000469
2312.3	0.0000418
2310.4	0.0000403
2308.5	0.0000394
2306.6	0.0000395
2304.6	0.0000361
2302.7	0.0000252
2300.8	0.0000158
2298.8	0.0000169
2296.9	0.0000199
2295.0	0.0000151
2293.1	0.0000086
2291.1	0.0000089
2289.2	0.0000121
2287.3	0.0000134
2285.3	0.0000149
2283.4	0.0000195
2281.5	0.0000241
2279.6	0.0000225
2277.6	0.0000163
2275.7	0.0000107
2273.8	0.0000086
2271.8	0.0000128
2269.9	0.0000207
2268.0	0.0000249
2266.1	0.0000212
2264.1	0.0000149
2262.2	0.0000129
2260.3	0.0000135
2258.3	0.0000163
2256.4	0.0000251
2254.5	0.0000373
2252.6	0.0000493
2250.6	0.0000613
2248.7	0.0000712
2246.8	0.0000776
2244.8	0.0000818
2242.9	0.0000816
2241.0	0.0000741
2239.1	0.0000578
2237.1	0.0000357
2235.2	0.0000148
2233.3	0.0000014
2231.3	-0.0000033
2229.4	-0.0000031
2227.5	-0.0000014
2225.6	0.0000004
2223.6	-0.0000001
2221.7	-0.0000036
2219.8	-0.0000095
2217.8	-0.0000161
2215.9	-0.0000174
2214.0	-0.0000110
2212.1	-0.0000046
2210.1	-0.0000036
2208.2	-0.0000063
2206.3	-0.0000095
2204.3	-0.0000088
2202.4	-0.0000066
2200.5	-0.0000094
2198.6	-0.0000119
2196.6	-0.0000083
2194.7	-0.0000053
2192.8	-0.0000074
2190.8	-0.0000090
2188.9	-0.0000076
2187.0	-0.0000065
2185.1	-0.0000029
2183.1	0.0000055
2181.2	0.0000108
2179.3	0.0000113
2177.3	0.0000134
2175.4	0.0000136
2173.5	0.0000067
2171.6	0.0000002
2169.6	-0.0000012
2167.7	0.0000003
2165.8	0.0000037
2163.8	0.0000077
2161.9	0.0000094
2160.0	0.0000101
2158.1	0.0000116
2156.1	0.0000090
2154.2	0.0000017
2152.3	-0.0000026
2150.3	-0.0000002
2148.4	0.0000029
2146.5	0.0000015
2144.6	-0.0000001
2142.6	0.0000001
2140.7	-0.0000001
2138.8	-0.0000015
2136.8	-0.0000019
2134.9	-0.0000014
2133.0	-0.0000030
2131.1	-0.0000065
2129.1	-0.0000077
2127.2	-0.0000082
2125.3	-0.0000088
2123.3	-0.0000068
2121.4	-0.0000050
2119.5	-0.0000067
2117.6	-0.0000087
2115.6	-0.0000060
2113.7	-0.0000011
2111.8	0.0000018
2109.8	0.0000044
2107.9	0.0000028
2106.0	-0.0000105
2104.1	-0.0000271
2102.1	-0.0000352
2100.2	-0.0000434
2098.3	-0.0000638
2096.3	-0.0001056
2094.4	-0.0002038
2092.5	-0.0004642
2090.6	-0.0009651
2088.6	-0.0014590
2086.7	-0.0015165
2084.8	-0.0011294
2082.8	-0.0006692
2080.9	-0.0003520
2079.0	-0.0001540
2077.1	0.0000044
2075.1	0.0001655
2073.2	0.0003155
2071.3	0.0004193
2069.3	0.0004627
2067.4	0.0004584
2065.5	0.0004224
2063.6	0.0003704
2061.6	0.0003177
2059.7	0.0002669
2057.8	0.0002176
2055.8	0.0001761
2053.9	0.0001393
2052.0	0.0001018
2050.1	0.0000684
2048.1	0.0000485
2046.2	0.0000413
2044.3	0.0000364
2042.3	0.0000259
2040.4	0.0000097
2038.5	-0.0000046
2036.6	-0.0000082
2034.6	-0.0000027
2032.7	0.0000022
2030.8	0.0000046
2028.8	0.0000097
2026.9	0.0000122
2025.0	0.0000090
2023.1	0.0000068
2021.1	0.0000088
2019.2	0.0000159
2017.3	0.0000215
2015.3	0.0000155
2013.4	0.0000048
2011.5	0.0000016
2009.6	0.0000053
2007.6	0.0000076
2005.7	0.0000024
2003.8	-0.0000065
2001.8	-0.0000120
1999.9	-0.0000115
1998.0	-0.0000092
1996.1	-0.0000048
1994.1	0.0000130
1992.2	0.0000324
1990.3	0.0000262
1988.3	0.0000037
1986.4	-0.0000137
1984.5	-0.0000201
1982.6	-0.0000182
1980.6	-0.0000155
1978.7	-0.0000146
1976.8	-0.0000163
1974.8	-0.0000213
1972.9	-0.0000239
1971.0	-0.0000148
1969.1	0.0000038
1967.1	0.0000140
1965.2	0.0000083
1963.3	-0.0000026
1961.4	-0.0000112
1959.4	-0.0000149
1957.5	-0.0000135
1955.6	-0.0000113
1953.6	-0.0000121
1951.7	-0.0000148
1949.8	-0.0000142
1947.9	-0.0000057
1945.9	0.0000186
1944.0	0.0000555
1942.1	0.0000599
1940.1	0.0000170
1938.2	-0.0000184
1936.3	-0.0000239
1934.4	-0.0000213
1932.4	-0.0000206
1930.5	-0.0000237
1928.6	-0.0000276
1926.6	-0.0000133
1924.7	0.0000247
1922.8	0.0000556
1920.9	0.0000852
1918.9	0.0001211
1917.0	0.0000985
1915.1	0.0000256
1913.1	-0.0000063
1911.2	0.0000070
1909.3	0.0000139
1907.4	0.0000027
1905.4	-0.0000098
1903.5	-0.0000159
1901.6	-0.0000200
1899.6	-0.0000193
1897.7	-0.0000043
1895.8	0.0000197
1893.9	0.0000423
1891.9	0.0000869
1890.0	0.0001473
1888.1	0.0001742
1886.1	0.0001868
1884.2	0.0002289
1882.3	0.0002879
1880.4	0.0003454
1878.4	0.0003946
1876.5	0.0004221
1874.6	0.0004212
1872.6	0.0004421
1870.7	0.0005170
1868.8	0.0005291
1866.9	0.0003927
1864.9	0.0002243
1863.0	0.0001304
1861.1	0.0000865
1859.1	0.0000532
1857.2	0.0000220
1855.3	0.0000013
1853.4	-0.0000059
1851.4	-0.0000003
1849.5	0.0000331
1847.6	0.0001588
1845.6	0.0003639
1843.7	0.0004044
1841.8	0.0002050
1839.9	0.0000315
1837.9	-0.0000055
1836.0	-0.0000066
1834.1	0.0000176
1832.1	0.0001166
1830.2	0.0002098
1828.3	0.0002035
1826.4	0.0001657
1824.4	0.0001223
1822.5	0.0000456
1820.6	-0.0000025
1818.6	-0.0000010
1816.7	0.0000031
1814.8	0.0000066
1812.9	0.0000385
1810.9	0.0000691
1809.0	0.0000501
1807.1	0.0000109
1805.1	0.0000170
1803.2	0.0000907
1801.3	0.0001685
1799.4	0.0001648
1797.4	0.0001195
1795.5	0.0001850
1793.6	0.0003484
1791.6	0.0003656
1789.7	0.0001943
1787.8	0.0000829
1785.9	0.0001066
1783.9	0.0001289
1782.0	0.0001102
1780.1	0.0000830
1778.1	0.0000707
1776.2	0.0002106
1774.3	0.0005548
1772.4	0.0007629
1770.4	0.0006096
1768.5	0.0003534
1766.6	0.0001901
1764.6	0.0001577
1762.7	0.0002322
1760.8	0.0002440
1758.9	0.0001949
1756.9	0.0001732
1755.0	0.0002041
1753.1	0.0003763
1751.1	0.0005523
1749.2	0.0004919
1747.3	0.0003063
1745.4	0.0002022
1743.4	0.0002180
1741.5	0.0003107
1739.6	0.0003722
1737.6	0.0005253
1735.7	0.0009434
1733.8	0.0011324
1731.9	0.0007396
1729.9	0.0002798
1728.0	0.0000833
1726.1	0.0000358
1724.1	0.0000498
1722.2	0.0001617
1720.3	0.0005620
1718.4	0.0010879
1716.4	0.0011503
1714.5	0.0007059
1712.6	0.0002805
1710.6	0.0001245
1708.7	0.0001907
1706.8	0.0003513
1704.9	0.0005089
1702.9	0.0008601
1701.0	0.0013247
1699.1	0.0014472
1697.1	0.0013118
1695.2	0.0010149
1693.3	0.0005006
1691.4	0.0001735
1689.4	0.0002303
1687.5	0.0006811
1685.6	0.0013058
1683.6	0.0013194
1681.7	0.0006934
1679.8	0.0002469
1677.9	0.0003013
1675.9	0.0005189
1674.0	0.0005408
1672.1	0.0005077
1670.1	0.0005574
1668.2	0.0004416
1666.3	0.0002341
1664.4	0.0002266
1662.4	0.0002649
1660.5	0.0001638
1658.6	0.0001342
1656.6	0.0006320
1654.7	0.0016759
1652.8	0.0021212
1650.9	0.0014364
1648.9	0.0008682
1647.0	0.0008861
1645.1	0.0007171
1643.1	0.0002961
1641.2	0.0000973
1639.3	0.0002822
1637.4	0.0007345
1635.4	0.0009364
1633.5	0.0005781
1631.6	0.0001719
1629.6	0.0000967
1627.7	0.0001672
1625.8	0.0002611
1623.9	0.0003275
1621.9	0.0002748
1620.0	0.0003581
1618.1	0.0007300
1616.1	0.0008238
1614.2	0.0004232
1612.3	0.0000912
1610.4	0.0000361
1608.4	0.0000412
1606.5	0.0000223
1604.6	0.0000090
1602.6	0.0000054
1600.7	-0.0000052
1598.8	-0.0000128
1596.9	-0.0000024
1594.9	0.0000109
1593.0	0.0000096
1591.1	0.0000084
1589.1	0.0000130
1587.2	0.0000092
1585.3	-0.0000030
1583.4	-0.0000097
1581.4	0.0000331
1579.5	0.0003213
1577.6	0.0008413
1575.6	0.0009708
1573.7	0.0005890
1571.8	0.0004174
1569.9	0.0005028
1567.9	0.0004066
1566.0	0.0002426
1564.1	0.0003337
1562.1	0.0009601
1560.2	0.0018844
1558.3	0.0021133
1556.4	0.0014978
1554.4	0.0008672
1552.5	0.0005053
1550.6	0.0003070
1548.6	0.0002629
1546.7	0.0004056
1544.8	0.0007864
1542.9	0.0013843
1540.9	0.0018892
1539.0	0.0017062
1537.1	0.0010085
1535.1	0.0006271
1533.2	0.0005592
1531.3	0.0004094
1529.4	0.0003265
1527.4	0.0004395
1525.5	0.0006524
1523.6	0.0009966
1521.6	0.0012517
1519.7	0.0010893
1517.8	0.0007373
1515.9	0.0004952
1513.9	0.0003757
1512.0	0.0004230
1510.1	0.0007977
1508.1	0.0014565
1506.2	0.0016777
1504.3	0.0010651
1502.4	0.0004157
1500.4	0.0003296
1498.5	0.0005459
1496.6	0.0006234
1494.6	0.0004562
1492.7	0.0003523
1490.8	0.0004376
1488.9	0.0004531
1486.9	0.0003005
1485.0	0.0001370
1483.1	0.0000701
1481.1	0.0000760
1479.2	0.0001367
1477.3	0.0002945
1475.4	0.0005474
1473.4	0.0007321
1471.5	0.0006067
1469.6	0.0002956
1467.6	0.0002062
1465.7	0.0003199
1463.8	0.0003087
1461.9	0.0002717
1459.9	0.0006281
1458.0	0.0011786
1456.1	0.0011588
1454.1	0.0005874
1452.2	0.0001798
1450.3	0.0001304
1448.4	0.0001704
1446.4	0.0001218
1444.5	0.0000272
1442.6	-0.0000051
1440.6	0.0001090
1438.7	0.0004153
1436.8	0.0006210
1434.9	0.0004454
1432.9	0.0001930
1431.0	0.0001371
1429.1	0.0001329
1427.1	0.0001042
1425.2	0.0001146
1423.3	0.0002162
1421.4	0.0004685
1419.4	0.0006565
1417.5	0.0004938
1415.6	0.0001960
1413.6	0.0000604
1411.7	0.0000410
1409.8	0.0000416
1407.9	0.0000731
1405.9	0.0001328
1404.0	0.0001480
1402.1	0.0001588
1400.1	0.0002419
1398.2	0.0003316
1396.3	0.0003860
1394.4	0.0003569
1392.4	0.0002148
1390.5	0.0001338
1388.6	0.0001819
1386.6	0.0001797
1384.7	0.0000825
1382.8	0.0000212
1380.9	0.0000265
1378.9	0.0000514
1377.0	0.0000965
1375.1	0.0001439
1373.1	0.0001325
1371.2	0.0000825
1369.3	0.0000575
1367.4	0.0000546
1365.4	0.0000851
1363.5	0.0001455
1361.6	0.0001546
1359.6	0.0000956
1357.7	0.0000430
1355.8	0.0000276
1353.9	0.0000204
1351.9	0.0000122
1350.0	0.0000104
1348.1	0.0000071
1346.1	0.0000021
1344.2	0.0000159
1342.3	0.0000700
1340.4	0.0001344
1338.4	0.0001404
1336.5	0.0000868
1334.6	0.0000365
1332.6	0.0000170
1330.7	0.0000123
1328.8	0.0000105
1326.9	0.0000120
1324.9	0.0000165
1323.0	0.0000239
1321.1	0.0000364
1319.1	0.0000435
1317.2	0.0000328
1315.3	0.0000194
1313.4	0.0000161
1311.4	0.0000145
1309.5	0.0000076
1307.6	-0.0000029
1305.6	-0.0000114
1303.7	-0.0000150
1301.8	-0.0000127
1299.9	-0.0000046
1297.9	0.0000009
1296.0	0.0000005
1294.1	0.0000034
1292.1	0.0000106
1290.2	0.0000127
1288.3	0.0000111
1286.4	0.0000072
1284.4	0.0000012
1282.5	-0.0000005
1280.6	0.0000029
1278.6	0.0000055
1276.7	0.0000075
1274.8	0.0000135
1272.9	0.0000222
1270.9	0.0000262
1269.0	0.0000224
1267.1	0.0000171
1265.1	0.0000151
1263.2	0.0000166
1261.3	0.0000238
1259.4	0.0000318
1257.4	0.0000306
1255.5	0.0000250
1253.6	0.0000274
1251.6	0.0000359
1249.7	0.0000369
1247.8	0.0000292
1245.9	0.0000229
1243.9	0.0000192
1242.0	0.0000155
1240.1	0.0000162
1238.1	0.0000226
1236.2	0.0000287
1234.3	0.0000294
1232.4	0.0000255
1230.4	0.0000224
1228.5	0.0000273
1226.6	0.0000419
1224.6	0.0000548
1222.7	0.0000581
1220.8	0.0000599
1218.9	0.0000608
1216.9	0.0000534
1215.0	0.0000437
1213.1	0.0000409
1211.1	0.0000442
1209.2	0.0000453
1207.3	0.0000435
1205.4	0.0000442
1203.4	0.0000430
1201.5	0.0000386
1199.6	0.0000387
1197.6	0.0000421
1195.7	0.0000438
1193.8	0.0000444
1191.9	0.0000418
1189.9	0.0000371
1188.0	0.0000367
1186.1	0.0000316
1184.1	0.0000048
1182.2	-0.0000151
1180.3	0.0000223
1178.4	0.0000812
1176.4	0.0000911
1174.5	0.0000689
1172.6	0.0000584
1170.6	0.0000577
1168.7	0.0000524
1166.8	0.0000464
1164.9	0.0000446
1162.9	0.0000447
1161.0	0.0000447
1159.1	0.0000482
1157.1	0.0000561
1155.2	0.0000599
1153.3	0.0000517
1151.4	0.0000371
1149.4	0.0000249
1147.5	0.0000172
1145.6	0.0000145
1143.6	0.0000181
1141.7	0.0000318
1139.8	0.0000486
1137.9	0.0000567
1135.9	0.0000595
1134.0	0.0000594
1132.1	0.0000518
1130.1	0.0000418
1128.2	0.0000368
1126.3	0.0000413
1124.4	0.0000521
1122.4	0.0000560
1120.5	0.0000487
1118.6	0.0000392
1116.6	0.0000309
1114.7	0.0000265
1112.8	0.0000317
1110.9	0.0000365
1108.9	0.0000339
1107.0	0.0000343
1105.1	0.0000366
1103.1	0.0000323
1101.2	0.0000272
1099.3	0.0000260
1097.4	0.0000240
1095.4	0.0000263
1093.5	0.0000393
1091.6	0.0000533
1089.6	0.0000554
1087.7	0.0000447
1085.8	0.0000332
1083.9	0.0000287
1081.9	0.0000228
1080.0	0.0000124
1078.1	0.0000096
1076.1	0.0000218
1074.2	0.0000426
1072.3	0.0000590
1070.4	0.0000655
1068.4	0.0000640
1066.5	0.0000555
1064.6	0.0000491
1062.6	0.0000516
1060.7	0.0000542
1058.8	0.0000518
1056.9	0.0000471
1054.9	0.0000454
1053.0	0.0000491
1051.1	0.0000489
1049.1	0.0000446
1047.2	0.0000441
1045.3	0.0000437
1043.4	0.0000379
1041.4	0.0000302
1039.5	0.0000268
1037.6	0.0000260
1035.6	0.0000218
1033.7	0.0000184
1031.8	0.0000229
1029.9	0.0000293
1027.9	0.0000298
1026.0	0.0000293
1024.1	0.0000313
1022.1	0.0000372
1020.2	0.0000504
1018.3	0.0000621
1016.4	0.0000624
1014.4	0.0000603
1012.5	0.0000654
1010.6	0.0000683
1008.6	0.0000628
1006.7	0.0000612
1004.8	0.0000687
1002.9	0.0000709
1000.9	0.0000623
999.0	0.0000569
997.1	0.0000629
995.1	0.0000746
993.2	0.0000830
991.3	0.0000864
989.4	0.0000933
987.4	0.0001023
985.5	0.0000993
983.6	0.0000915
981.6	0.0000951
979.7	0.0000993
977.8	0.0000968
975.9	0.0000958
973.9	0.0000949
972.0	0.0000906
970.1	0.0000910
968.1	0.0000990
966.2	0.0001009
964.3	0.0000952
962.4	0.0000965
960.4	0.0001008
958.5	0.0000962
956.6	0.0000873
954.6	0.0000790
952.7	0.0000715
950.8	0.0000673
948.9	0.0000607
946.9	0.0000552
945.0	0.0000594
943.1	0.0000624
941.1	0.0000592
939.2	0.0000629
937.3	0.0000708
935.4	0.0000631
933.4	0.0000428
931.5	0.0000251
929.6	0.0000141
927.6	0.0000138
925.7	0.0000198
923.8	0.0000243
921.9	0.0000329
919.9	0.0000418
918.0	0.0000353
916.1	0.0000133
914.1	-0.0000072
912.2	-0.0000096
910.3	0.0000021
908.4	0.0000054
906.4	-0.0000078
904.5	-0.0000232
902.6	-0.0000286
900.6	-0.0000242
898.7	-0.0000174
896.8	-0.0000135
894.9	-0.0000123
892.9	-0.0000115
891.0	-0.0000117
889.1	-0.0000117
887.1	-0.0000080
885.2	-0.0000044
883.3	0.0000036
881.4	0.0000164
879.4	0.0000196
877.5	0.0000152
875.6	0.0000065
873.6	-0.0000091
871.7	-0.0000130
869.8	0.0000134
867.9	0.0000398
865.9	0.0000241
864.0	-0.0000094
862.1	-0.0000159
860.1	-0.0000060
858.2	-0.0000097
856.3	-0.0000217
854.4	-0.0000181
852.4	0.0000056
850.5	0.0000274
848.6	0.0000314
846.6	0.0000399
844.7	0.0000573
842.8	0.0000444
840.9	0.0000122
838.9	0.0000059
837.0	0.0000328
835.1	0.0000671
833.1	0.0000755
831.2	0.0000583
829.3	0.0000435
827.4	0.0000397
825.4	0.0000485
823.5	0.0000755
821.6	0.0001090
819.6	0.0001263
817.7	0.0001286
815.8	0.0001272
813.9	0.0001274
811.9	0.0001405
810.0	0.0001715
808.1	0.0001965
806.1	0.0001843
804.2	0.0001544
802.3	0.0001498
800.4	0.0001637
798.4	0.0001792
796.5	0.0001910
794.6	0.0001952
792.6	0.0002100
790.7	0.0002254
788.8	0.0002117
786.9	0.0001951
784.9	0.0002055
783.0	0.0002257
781.1	0.0002233
779.1	0.0002147
777.2	0.0002542
775.3	0.0003120
773.4	0.0003230
771.4	0.0003275
769.5	0.0003674
767.6	0.0003883
765.6	0.0003628
763.7	0.0003419
761.8	0.0003697
759.9	0.0004288
757.9	0.0004756
756.0	0.0005176
754.1	0.0005595
752.1	0.0005965
750.2	0.0006193
748.3	0.0005783
746.4	0.0005499
744.4	0.0006458
742.5	0.0007589
740.6	0.0007761
738.6	0.0007451
736.7	0.0007400
734.8	0.0007709
732.9	0.0007901
730.9	0.0008183
729.0	0.0009032
727.1	0.0009748
725.1	0.0010053
723.2	0.0010285
721.3	0.0010633
719.4	0.0011247
717.4	0.0011449
715.5	0.0011469
713.6	0.0012005
711.6	0.0012569
709.7	0.0013144
707.8	0.0013621
705.9	0.0013835
703.9	0.0014669
702.0	0.0016053
700.1	0.0016570
698.1	0.0016186
696.2	0.0015633
694.3	0.0015541
692.4	0.0015842
690.4	0.0015718
688.5	0.0016161
686.6	0.0017324
684.6	0.0017850
682.7	0.0018317
680.8	0.0018547
678.9	0.0018088
676.9	0.0017758
675.0	0.0017127
673.1	0.0015780
671.1	0.0014904
669.2	0.0015659
667.3	0.0018022
665.4	0.0020387
663.4	0.0020910
661.5	0.0019193
659.6	0.0015840
657.6	0.0013387
655.7	0.0015245
653.8	0.0020278
651.9	0.0022779
649.9	0.0020310
648.0	0.0016685
646.1	0.0015090
644.1	0.0015151
642.2	0.0015532
640.3	0.0015754
638.4	0.0016548
636.4	0.0017474
634.5	0.0017581
632.6	0.0017066
630.6	0.0016485
628.7	0.0016634
626.8	0.0017190
624.9	0.0017329
622.9	0.0016734
621.0	0.0015191
619.1	0.0013841
617.1	0.0014203
615.2	0.0015287
613.3	0.0015815
611.4	0.0016246
609.4	0.0016891
607.5	0.0017546
605.6	0.0017072
603.6	0.0015262
601.7	0.0014617
599.8	0.0015058
