3997.9	-0.0000316
3996.0	-0.0000278
3994.1	-0.0000335
3992.1	-0.0000367
3990.2	-0.0000321
3988.3	-0.0000323
3986.3	-0.0000381
3984.4	-0.0000394
3982.5	-0.0000361
3980.6	-0.0000362
3978.6	-0.0000362
3976.7	-0.0000271
3974.8	-0.0000125
3972.8	-0.0000045
3970.9	-0.0000076
3969.0	-0.0000141
3967.1	-0.0000189
3965.1	-0.0000190
3963.2	-0.0000173
3961.3	-0.0000162
3959.3	-0.0000155
3957.4	-0.0000173
3955.5	-0.0000175
3953.6	-0.0000022
3951.6	0.0000329
3949.7	0.0000614
3947.8	0.0000554
3945.8	0.0000392
3943.9	0.0000416
3942.0	0.0000312
3940.1	-0.0000036
3938.1	-0.0000181
3936.2	0.0000130
3934.3	0.0000692
3932.3	0.0000960
3930.4	0.0000618
3928.5	0.0000120
3926.6	-0.0000008
3924.6	0.0000179
3922.7	0.0000498
3920.8	0.0000920
3918.8	0.0001176
3916.9	0.0000924
3915.0	0.0000334
3913.1	-0.0000060
3911.1	-0.0000127
3909.2	0.0000098
3907.3	0.0001023
3905.3	0.0002454
3903.4	0.0003304
3901.5	0.0003161
3899.6	0.0002341
3897.6	0.0001157
3895.7	0.0000439
3893.8	0.0000902
3891.8	0.0001573
3889.9	0.0001559
3888.0	0.0001925
3886.1	0.0002678
3884.1	0.0002560
3882.2	0.0002278
3880.3	0.0002122
3878.3	0.0001398
3876.4	0.0001036
3874.5	0.0001595
3872.6	0.0002915
3870.6	0.0004291
3868.7	0.0004330
3866.8	0.0003906
3864.8	0.0003921
3862.9	0.0003199
3861.0	0.0001785
3859.1	0.0001573
3857.1	0.0005105
3855.2	0.0011591
3853.3	0.0014133
3851.3	0.0009447
3849.4	0.0003394
3847.5	0.0000780
3845.6	0.0000799
3843.6	0.0001572
3841.7	0.0002884
3839.8	0.0004897
3837.8	0.0006011
3835.9	0.0005093
3834.0	0.0003548
3832.1	0.0002384
3830.1	0.0001373
3828.2	0.0000784
3826.3	0.0000863
3824.3	0.0001860
3822.4	0.0003537
3820.5	0.0004216
3818.6	0.0004156
3816.6	0.0004248
3814.7	0.0002974
3812.8	0.0000915
3810.8	0.0000720
3808.9	0.0002589
3807.0	0.0004006
3805.1	0.0004143
3803.1	0.0004942
3801.2	0.0005341
3799.3	0.0003742
3797.3	0.0002172
3795.4	0.0001264
3793.5	0.0000305
3791.6	-0.0000202
3789.6	-0.0000229
3787.7	-0.0000129
3785.8	0.0000029
3783.8	0.0000191
3781.9	0.0000575
3780.0	0.0001004
3778.1	0.0000788
3776.1	0.0000176
3774.2	0.0000087
3772.3	0.0000783
3770.3	0.0001540
3768.4	0.0001658
3766.5	0.0001387
3764.6	0.0001035
3762.6	0.0001104
3760.7	0.0001965
3758.8	0.0002407
3756.8	0.0002217
3754.9	0.0003397
3753.0	0.0006710
3751.1	0.0009670
3749.1	0.0009881
3747.2	0.0010190
3745.3	0.0011935
3743.3	0.0010001
3741.4	0.0004956
3739.5	0.0003017
3737.6	0.0004421
3735.6	0.0005740
3733.7	0.0005495
3731.8	0.0003913
3729.8	0.0002238
3727.9	0.0001756
3726.0	0.0001974
3724.1	0.0001792
3722.1	0.0001411
3720.2	0.0001019
3718.3	0.0000633
3716.3	0.0001132
3714.4	0.0003396
3712.5	0.0005570
3710.6	0.0004725
3708.6	0.0002042
3706.7	0.0000366
3704.8	0.0000405
3702.8	0.0001153
3700.9	0.0001088
3699.0	0.0000248
3697.1	-0.0000234
3695.1	0.0000209
3693.2	0.0001809
3691.3	0.0004362
3689.3	0.0005857
3687.4	0.0004300
3685.5	0.0001467
3683.6	0.0000169
3681.6	0.0000389
3679.7	0.0001720
3677.8	0.0004807
3675.8	0.0007507
3673.9	0.0007442
3672.0	0.0006743
3670.1	0.0005879
3668.1	0.0003292
3666.2	0.0000771
3664.3	-0.0000172
3662.3	-0.0000289
3660.4	0.0000278
3658.5	0.0001993
3656.6	0.0003401
3654.6	0.0003269
3652.7	0.0004023
3650.8	0.0006462
3648.8	0.0007115
3646.9	0.0004693
3645.0	0.0001824
3643.1	0.0000344
3641.1	-0.0000145
3639.2	-0.0000268
3637.3	-0.0000038
3635.3	0.0000512
3633.4	0.0001668
3631.5	0.0004197
3629.6	0.0006227
3627.6	0.0004763
3625.7	0.0001682
3623.8	0.0000467
3621.8	0.0001229
3619.9	0.0002286
3618.0	0.0002344
3616.1	0.0001997
3614.1	0.0002309
3612.2	0.0002959
3610.3	0.0003312
3608.3	0.0002839
3606.4	0.0001543
3604.5	0.0000459
3602.6	0.0000217
3600.6	0.0000389
3598.7	0.0000522
3596.8	0.0000615
3594.8	0.0000663
3592.9	0.0000563
3591.0	0.0000754
3589.1	0.0001503
3587.1	0.0001815
3585.2	0.0001130
3583.3	0.0000354
3581.3	0.0000078
3579.4	0.0000034
3577.5	0.0000000
3575.6	-0.0000052
3573.6	-0.0000109
3571.7	0.0000180
3569.8	0.0001220
3567.8	0.0002270
3565.9	0.0002081
3564.0	0.0000996
3562.1	0.0000194
3560.1	-0.0000108
3558.2	-0.0000214
3556.3	-0.0000179
3554.3	0.0000041
3552.4	0.0000196
3550.5	0.0000158
3548.6	0.0000310
3546.6	0.0000586
3544.7	0.0000441
3542.8	-0.0000018
3540.8	-0.0000257
3538.9	-0.0000188
3537.0	-0.0000106
3535.1	-0.0000168
3533.1	-0.0000193
3531.2	-0.0000027
3529.3	0.0000197
3527.3	0.0000318
3525.4	0.0000320
3523.5	0.0000217
3521.6	0.0000047
3519.6	-0.0000095
3517.7	-0.0000174
3515.8	-0.0000243
3513.8	-0.0000285
3511.9	-0.0000236
3510.0	-0.0000116
3508.1	-0.0000003
3506.1	0.0000117
3504.2	0.0000248
3502.3	0.0000261
3500.3	0.0000132
3498.4	0.0000027
3496.5	0.0000014
3494.6	0.0000060
3492.6	0.0000100
3490.7	0.0000064
3488.8	-0.0000017
3486.8	-0.0000074
3484.9	-0.0000052
3483.0	0.0000071
3481.1	0.0000141
3479.1	0.0000072
3477.2	-0.0000026
3475.3	-0.0000104
3473.3	-0.0000114
3471.4	-0.0000025
3469.5	0.0000086
3467.6	0.0000121
3465.6	0.0000092
3463.7	0.0000093
3461.8	0.0000088
3459.8	-0.0000009
3457.9	-0.0000101
3456.0	-0.0000126
3454.1	-0.0000173
3452.1	-0.0000212
3450.2	-0.0000106
3448.3	0.0000077
3446.3	0.0000120
3444.4	0.0000019
3442.5	-0.0000059
3440.6	-0.0000057
3438.6	-0.0000010
3436.7	-0.0000006
3434.8	-0.0000081
3432.8	-0.0000088
3430.9	-0.0000021
3429.0	-0.0000074
3427.1	-0.0000224
3425.1	-0.0000289
3423.2	-0.0000187
3421.3	-0.0000014
3419.3	0.0000033
3417.4	-0.0000083
3415.5	-0.0000219
3413.6	-0.0000286
3411.6	-0.0000275
3409.7	-0.0000214
3407.8	-0.0000176
3405.8	-0.0000120
3403.9	0.0000049
3402.0	0.0000175
3400.1	0.0000140
3398.1	0.0000044
3396.2	-0.0000057
3394.3	-0.0000141
3392.3	-0.0000161
3390.4	-0.0000160
3388.5	-0.0000219
3386.6	-0.0000296
3384.6	-0.0000273
3382.7	-0.0000211
3380.8	-0.0000224
3378.8	-0.0000279
3376.9	-0.0000304
3375.0	-0.0000237
3373.1	-0.0000077
3371.1	0.0000017
3369.2	-0.0000077
3367.3	-0.0000270
3365.3	-0.0000382
3363.4	-0.0000350
3361.5	-0.0000259
3359.6	-0.0000196
3357.6	-0.0000164
3355.7	-0.0000146
3353.8	-0.0000193
3351.8	-0.0000330
3349.9	-0.0000455
3348.0	-0.0000473
3346.1	-0.0000419
3344.1	-0.0000354
3342.2	-0.0000316
3340.3	-0.0000370
3338.3	-0.0000480
3336.4	-0.0000534
3334.5	-0.0000528
3332.6	-0.0000516
3330.6	-0.0000507
3328.7	-0.0000451
3326.8	-0.0000373
3324.8	-0.0000410
3322.9	-0.0000567
3321.0	-0.0000675
3319.1	-0.0000630
3317.1	-0.0000514
3315.2	-0.0000459
3313.3	-0.0000480
3311.3	-0.0000522
3309.4	-0.0000553
3307.5	-0.0000545
3305.6	-0.0000518
3303.6	-0.0000487
3301.7	-0.0000408
3299.8	-0.0000379
3297.8	-0.0000536
3295.9	-0.0000746
3294.0	-0.0000764
3292.1	-0.0000584
3290.1	-0.0000420
3288.2	-0.0000373
3286.3	-0.0000376
3284.3	-0.0000408
3282.4	-0.0000447
3280.5	-0.0000462
3278.6	-0.0000436
3276.6	-0.0000357
3274.7	-0.0000274
3272.8	-0.0000256
3270.8	-0.0000289
3268.9	-0.0000294
3267.0	-0.0000216
3265.1	-0.0000104
3263.1	-0.0000041
3261.2	-0.0000010
3259.3	0.0000012
3257.3	-0.0000012
3255.4	-0.0000057
3253.5	-0.0000114
3251.6	-0.0000223
3249.6	-0.0000310
3247.7	-0.0000264
3245.8	-0.0000158
3243.8	-0.0000135
3241.9	-0.0000151
3240.0	-0.0000116
3238.1	-0.0000072
3236.1	0.0000014
3234.2	0.0000118
3232.3	0.0000107
3230.3	0.0000023
3228.4	-0.0000048
3226.5	-0.0000070
3224.6	-0.0000014
3222.6	0.0000046
3220.7	0.0000077
3218.8	0.0000178
3216.8	0.0000294
3214.9	0.0000247
3213.0	0.0000072
3211.1	-0.0000023
3209.1	0.0000018
3207.2	0.0000084
3205.3	0.0000092
3203.3	0.0000072
3201.4	0.0000070
3199.5	0.0000037
3197.6	-0.0000014
3195.6	-0.0000011
3193.7	0.0000004
3191.8	-0.0000016
3189.8	-0.0000026
3187.9	0.0000026
3186.0	0.0000098
3184.1	0.0000125
3182.1	0.0000149
3180.2	0.0000195
3178.3	0.0000172
3176.3	0.0000065
3174.4	-0.0000018
3172.5	-0.0000019
3170.6	0.0000004
3168.6	-0.0000042
3166.7	-0.0000090
3164.8	-0.0000053
3162.8	0.0000019
3160.9	0.0000095
3159.0	0.0000166
3157.1	0.0000206
3155.1	0.0000194
3153.2	0.0000171
3151.3	0.0000185
3149.3	0.0000178
3147.4	0.0000148
3145.5	0.0000186
3143.6	0.0000244
3141.6	0.0000228
3139.7	0.0000191
3137.8	0.0000189
3135.8	0.0000199
3133.9	0.0000184
3132.0	0.0000089
3130.1	-0.0000035
3128.1	-0.0000067
3126.2	-0.0000003
3124.3	0.0000068
3122.3	0.0000119
3120.4	0.0000146
3118.5	0.0000124
3116.6	0.0000062
3114.6	0.0000001
3112.7	-0.0000027
3110.8	-0.0000043
3108.8	-0.0000096
3106.9	-0.0000193
3105.0	-0.0000259
3103.1	-0.0000217
3101.1	-0.0000108
3099.2	-0.0000063
3097.3	-0.0000158
3095.3	-0.0000267
3093.4	-0.0000251
3091.5	-0.0000193
3089.6	-0.0000171
3087.6	-0.0000163
3085.7	-0.0000162
3083.8	-0.0000150
3081.8	-0.0000153
3079.9	-0.0000239
3078.0	-0.0000362
3076.1	-0.0000407
3074.1	-0.0000361
3072.2	-0.0000261
3070.3	-0.0000120
3068.3	-0.0000056
3066.4	-0.0000094
3064.5	-0.0000141
3062.6	-0.0000145
3060.6	-0.0000121
3058.7	-0.0000085
3056.8	-0.0000089
3054.8	-0.0000153
3052.9	-0.0000218
3051.0	-0.0000238
3049.1	-0.0000194
3047.1	-0.0000136
3045.2	-0.0000160
3043.3	-0.0000279
3041.3	-0.0000421
3039.4	-0.0000482
3037.5	-0.0000439
3035.6	-0.0000380
3033.6	-0.0000349
3031.7	-0.0000357
3029.8	-0.0000421
3027.8	-0.0000439
3025.9	-0.0000369
3024.0	-0.0000329
3022.1	-0.0000348
3020.1	-0.0000409
3018.2	-0.0000496
3016.3	-0.0000511
3014.3	-0.0000392
3012.4	-0.0000249
3010.5	-0.0000215
3008.6	-0.0000288
3006.6	-0.0000374
3004.7	-0.0000382
3002.8	-0.0000348
3000.8	-0.0000381
2998.9	-0.0000442
2997.0	-0.0000452
2995.1	-0.0000422
2993.1	-0.0000407
2991.2	-0.0000476
2989.3	-0.0000559
2987.3	-0.0000548
2985.4	-0.0000508
2983.5	-0.0000522
2981.6	-0.0000516
2979.6	-0.0000438
2977.7	-0.0000365
2975.8	-0.0000327
2973.8	-0.0000291
2971.9	-0.0000281
2970.0	-0.0000305
2968.1	-0.0000338
2966.1	-0.0000380
2964.2	-0.0000415
2962.3	-0.0000426
2960.3	-0.0000418
2958.4	-0.0000368
2956.5	-0.0000277
2954.6	-0.0000215
2952.6	-0.0000233
2950.7	-0.0000289
2948.8	-0.0000320
2946.8	-0.0000305
2944.9	-0.0000243
2943.0	-0.0000195
2941.1	-0.0000241
2939.1	-0.0000314
2937.2	-0.0000322
2935.3	-0.0000296
2933.3	-0.0000268
2931.4	-0.0000244
2929.5	-0.0000205
2927.6	-0.0000137
2925.6	-0.0000136
2923.7	-0.0000234
2921.8	-0.0000290
2919.8	-0.0000289
2917.9	-0.0000277
2916.0	-0.0000250
2914.1	-0.0000248
2912.1	-0.0000274
2910.2	-0.0000271
2908.3	-0.0000235
2906.3	-0.0000247
2904.4	-0.0000301
2902.5	-0.0000315
2900.6	-0.0000347
2898.6	-0.0000434
2896.7	-0.0000476
2894.8	-0.0000440
2892.8	-0.0000414
2890.9	-0.0000434
2889.0	-0.0000444
2887.1	-0.0000451
2885.1	-0.0000466
2883.2	-0.0000441
2881.3	-0.0000396
2879.3	-0.0000374
2877.4	-0.0000350
2875.5	-0.0000292
2873.6	-0.0000220
2871.6	-0.0000169
2869.7	-0.0000173
2867.8	-0.0000237
2865.8	-0.0000311
2863.9	-0.0000363
2862.0	-0.0000397
2860.1	-0.0000422
2858.1	-0.0000428
2856.2	-0.0000407
2854.3	-0.0000361
2852.3	-0.0000297
2850.4	-0.0000285
2848.5	-0.0000325
2846.6	-0.0000330
2844.6	-0.0000312
2842.7	-0.0000296
2840.8	-0.0000269
2838.8	-0.0000287
2836.9	-0.0000373
2835.0	-0.0000455
2833.1	-0.0000448
2831.1	-0.0000342
2829.2	-0.0000253
2827.3	-0.0000254
2825.3	-0.0000308
2823.4	-0.0000395
2821.5	-0.0000449
2819.6	-0.0000390
2817.6	-0.0000305
2815.7	-0.0000293
2813.8	-0.0000347
2811.8	-0.0000427
2809.9	-0.0000470
2808.0	-0.0000443
2806.1	-0.0000427
2804.1	-0.0000476
2802.2	-0.0000508
2800.3	-0.0000445
2798.3	-0.0000371
2796.4	-0.0000383
2794.5	-0.0000401
2792.6	-0.0000338
2790.6	-0.0000263
2788.7	-0.0000248
2786.8	-0.0000264
2784.8	-0.0000272
2782.9	-0.0000280
2781.0	-0.0000300
2779.1	-0.0000334
2777.1	-0.0000346
2775.2	-0.0000310
2773.3	-0.0000293
2771.3	-0.0000340
2769.4	-0.0000368
2767.5	-0.0000315
2765.6	-0.0000253
2763.6	-0.0000270
2761.7	-0.0000344
2759.8	-0.0000385
2757.8	-0.0000357
2755.9	-0.0000347
2754.0	-0.0000366
2752.1	-0.0000300
2750.1	-0.0000181
2748.2	-0.0000137
2746.3	-0.0000143
2744.3	-0.0000157
2742.4	-0.0000208
2740.5	-0.0000251
2738.6	-0.0000250
2736.6	-0.0000257
2734.7	-0.0000261
2732.8	-0.0000223
2730.8	-0.0000192
2728.9	-0.0000189
2727.0	-0.0000205
2725.1	-0.0000255
2723.1	-0.0000305
2721.2	-0.0000291
2719.3	-0.0000217
2717.3	-0.0000149
2715.4	-0.0000145
2713.5	-0.0000192
2711.6	-0.0000227
2709.6	-0.0000216
2707.7	-0.0000199
2705.8	-0.0000194
2703.8	-0.0000166
2701.9	-0.0000149
2700.0	-0.0000202
2698.1	-0.0000271
2696.1	-0.0000306
2694.2	-0.0000344
2692.3	-0.0000352
2690.3	-0.0000294
2688.4	-0.0000262
2686.5	-0.0000287
2684.6	-0.0000280
2682.6	-0.0000211
2680.7	-0.0000148
2678.8	-0.0000131
2676.8	-0.0000131
2674.9	-0.0000133
2673.0	-0.0000158
2671.1	-0.0000188
2669.1	-0.0000172
2667.2	-0.0000138
2665.3	-0.0000132
2663.3	-0.0000099
2661.4	-0.0000038
2659.5	-0.0000010
2657.6	-0.0000032
2655.6	-0.0000073
2653.7	-0.0000079
2651.8	-0.0000033
2649.8	0.0000003
2647.9	-0.0000038
2646.0	-0.0000100
2644.1	-0.0000069
2642.1	0.0000021
2640.2	0.0000058
2638.3	0.0000019
2636.3	-0.0000046
2634.4	-0.0000085
2632.5	-0.0000087
2630.6	-0.0000104
2628.6	-0.0000132
2626.7	-0.0000108
2624.8	-0.0000046
2622.8	0.0000009
2620.9	0.0000046
2619.0	0.0000030
2617.1	-0.0000015
2615.1	-0.0000000
2613.2	0.0000039
2611.3	0.0000009
2609.3	-0.0000044
2607.4	-0.0000051
2605.5	-0.0000054
2603.6	-0.0000068
2601.6	-0.0000083
2599.7	-0.0000141
2597.8	-0.0000187
2595.8	-0.0000154
2593.9	-0.0000120
2592.0	-0.0000100
2590.1	-0.0000013
2588.1	0.0000092
2586.2	0.0000133
2584.3	0.0000112
2582.3	0.0000053
2580.4	0.0000013
2578.5	0.0000024
2576.6	0.0000018
2574.6	-0.0000012
2572.7	0.0000017
2570.8	0.0000111
2568.8	0.0000154
2566.9	0.0000115
2565.0	0.0000063
2563.1	0.0000046
2561.1	0.0000094
2559.2	0.0000164
2557.3	0.0000142
2555.3	0.0000065
2553.4	0.0000053
2551.5	0.0000098
2549.6	0.0000158
2547.6	0.0000204
2545.7	0.0000219
2543.8	0.0000204
2541.8	0.0000157
2539.9	0.0000102
2538.0	0.0000074
2536.1	0.0000114
2534.1	0.0000214
2532.2	0.0000295
2530.3	0.0000292
2528.3	0.0000215
2526.4	0.0000147
2524.5	0.0000132
2522.6	0.0000143
2520.6	0.0000163
2518.7	0.0000188
2516.8	0.0000190
2514.8	0.0000139
2512.9	0.0000076
2511.0	0.0000050
2509.1	0.0000065
2507.1	0.0000156
2505.2	0.0000284
2503.3	0.0000334
2501.3	0.0000308
2499.4	0.0000293
2497.5	0.0000306
2495.6	0.0000330
2493.6	0.0000353
2491.7	0.0000341
2489.8	0.0000314
2487.8	0.0000310
2485.9	0.0000307
2484.0	0.0000294
2482.1	0.0000288
2480.1	0.0000298
2478.2	0.0000338
2476.3	0.0000370
2474.3	0.0000332
2472.4	0.0000241
2470.5	0.0000170
2468.6	0.0000161
2466.6	0.0000216
2464.7	0.0000290
2462.8	0.0000322
2460.8	0.0000331
2458.9	0.0000340
2457.0	0.0000311
2455.1	0.0000239
2453.1	0.0000207
2451.2	0.0000261
2449.3	0.0000323
2447.3	0.0000333
2445.4	0.0000334
2443.5	0.0000374
2441.6	0.0000429
2439.6	0.0000447
2437.7	0.0000448
2435.8	0.0000459
2433.8	0.0000435
2431.9	0.0000376
2430.0	0.0000348
2428.1	0.0000344
2426.1	0.0000338
2424.2	0.0000346
2422.3	0.0000330
2420.3	0.0000292
2418.4	0.0000310
2416.5	0.0000325
2414.6	0.0000283
2412.6	0.0000262
2410.7	0.0000279
2408.8	0.0000312
2406.8	0.0000348
2404.9	0.0000331
2403.0	0.0000271
2401.1	0.0000260
2399.1	0.0000311
2397.2	0.0000342
2395.3	0.0000330
2393.3	0.0000344
2391.4	0.0000381
2389.5	0.0000383
2387.6	0.0000362
2385.6	0.0000383
2383.7	0.0000439
2381.8	0.0000476
2379.8	0.0000535
2377.9	0.0000669
2376.0	0.0000820
2374.1	0.0000952
2372.1	0.0001095
2370.2	0.0001277
2368.3	0.0001463
2366.3	0.0001603
2364.4	0.0001690
2362.5	0.0001757
2360.6	0.0001809
2358.6	0.0001782
2356.7	0.0001645
2354.8	0.0001437
2352.8	0.0001148
2350.9	0.0000833
2349.0	0.0000676
2347.1	0.0000736
2345.1	0.0000900
2343.2	0.0001085
2341.3	0.0001262
2339.3	0.0001422
2337.4	0.0001577
2335.5	0.0001654
2333.6	0.0001600
2331.6	0.0001519
2329.7	0.0001496
2327.8	0.0001449
2325.8	0.0001294
2323.9	0.0001118
2322.0	0.0001022
2320.1	0.0000984
2318.1	0.0000957
2316.2	0.0000899
2314.3	0.0000806
2312.3	0.0000759
2310.4	0.0000771
2308.5	0.0000774
2306.6	0.0000737
2304.6	0.0000687
2302.7	0.0000642
2300.8	0.0000632
2298.8	0.0000670
2296.9	0.0000684
2295.0	0.0000640
2293.1	0.0000586
2291.1	0.0000534
2289.2	0.0000504
2287.3	0.0000520
2285.3	0.0000545
2283.4	0.0000586
2281.5	0.0000655
2279.6	0.0000699
2277.6	0.0000690
2275.7	0.0000605
2273.8	0.0000487
2271.8	0.0000456
2269.9	0.0000536
2268.0	0.0000627
2266.1	0.0000645
2264.1	0.0000577
2262.2	0.0000509
2260.3	0.0000535
2258.3	0.0000613
2256.4	0.0000672
2254.5	0.0000722
2252.6	0.0000799
2250.6	0.0000938
2248.7	0.0001103
2246.8	0.0001173
2244.8	0.0001114
2242.9	0.0001014
2241.0	0.0000924
2239.1	0.0000819
2237.1	0.0000708
2235.2	0.0000596
2233.3	0.0000492
2231.3	0.0000429
2229.4	0.0000399
2227.5	0.0000375
2225.6	0.0000388
2223.6	0.0000453
2221.7	0.0000498
2219.8	0.0000463
2217.8	0.0000393
2215.9	0.0000361
2214.0	0.0000389
2212.1	0.0000441
2210.1	0.0000506
2208.2	0.0000543
2206.3	0.0000508
2204.3	0.0000451
2202.4	0.0000422
2200.5	0.0000414
2198.6	0.0000438
2196.6	0.0000473
2194.7	0.0000465
2192.8	0.0000422
2190.8	0.0000424
2188.9	0.0000475
2187.0	0.0000515
2185.1	0.0000544
2183.1	0.0000553
2181.2	0.0000518
2179.3	0.0000469
2177.3	0.0000459
2175.4	0.0000473
2173.5	0.0000462
2171.6	0.0000434
2169.6	0.0000408
2167.7	0.0000396
2165.8	0.0000432
2163.8	0.0000496
2161.9	0.0000546
2160.0	0.0000580
2158.1	0.0000602
2156.1	0.0000586
2154.2	0.0000519
2152.3	0.0000457
2150.3	0.0000484
2148.4	0.0000540
2146.5	0.0000550
2144.6	0.0000549
2142.6	0.0000557
2140.7	0.0000557
2138.8	0.0000562
2136.8	0.0000579
2134.9	0.0000581
2133.0	0.0000555
2131.1	0.0000532
2129.1	0.0000548
2127.2	0.0000587
2125.3	0.0000631
2123.3	0.0000686
2121.4	0.0000710
2119.5	0.0000683
2117.6	0.0000665
2115.6	0.0000702
2113.7	0.0000768
2111.8	0.0000813
2109.8	0.0000852
2107.9	0.0000879
2106.0	0.0000868
2104.1	0.0000836
2102.1	0.0000803
2100.2	0.0000747
2098.3	0.0000634
2096.3	0.0000332
2094.4	-0.0000569
2092.5	-0.0003214
2090.6	-0.0008446
2088.6	-0.0013085
2086.7	-0.0010583
2084.8	0.0001441
2082.8	0.0017656
2080.9	0.0029692
2079.0	0.0033079
2077.1	0.0029890
2075.1	0.0024504
2073.2	0.0019292
2071.3	0.0014819
2069.3	0.0011230
2067.4	0.0008587
2065.5	0.0006741
2063.6	0.0005403
2061.6	0.0004323
2059.7	0.0003373
2057.8	0.0002579
2055.8	0.0001968
2053.9	0.0001507
2052.0	0.0001175
2050.1	0.0000938
2048.1	0.0000724
2046.2	0.0000553
2044.3	0.0000500
2042.3	0.0000494
2040.4	0.0000402
2038.5	0.0000274
2036.6	0.0000245
2034.6	0.0000307
2032.7	0.0000388
2030.8	0.0000466
2028.8	0.0000539
2026.9	0.0000582
2025.0	0.0000616
2023.1	0.0000664
2021.1	0.0000692
2019.2	0.0000708
2017.3	0.0000692
2015.3	0.0000591
2013.4	0.0000473
2011.5	0.0000440
2009.6	0.0000499
2007.6	0.0000566
2005.7	0.0000542
2003.8	0.0000431
2001.8	0.0000338
1999.9	0.0000323
1998.0	0.0000359
1996.1	0.0000446
1994.1	0.0000603
1992.2	0.0000714
1990.3	0.0000656
1988.3	0.0000504
1986.4	0.0000357
1984.5	0.0000287
1982.6	0.0000313
1980.6	0.0000337
1978.7	0.0000326
1976.8	0.0000316
1974.8	0.0000288
1972.9	0.0000261
1971.0	0.0000331
1969.1	0.0000509
1967.1	0.0000618
1965.2	0.0000577
1963.3	0.0000494
1961.4	0.0000434
1959.4	0.0000405
1957.5	0.0000413
1955.6	0.0000424
1953.6	0.0000401
1951.7	0.0000380
1949.8	0.0000426
1947.9	0.0000538
1945.9	0.0000754
1944.0	0.0001050
1942.1	0.0001096
1940.1	0.0000783
1938.2	0.0000490
1936.3	0.0000433
1934.4	0.0000513
1932.4	0.0000594
1930.5	0.0000566
1928.6	0.0000492
1926.6	0.0000593
1924.7	0.0000912
1922.8	0.0001190
1920.9	0.0001490
1918.9	0.0001852
1917.0	0.0001737
1915.1	0.0001219
1913.1	0.0001021
1911.2	0.0001213
1909.3	0.0001421
1907.4	0.0001563
1905.4	0.0001812
1903.5	0.0002309
1901.6	0.0003149
1899.6	0.0004593
1897.7	0.0006945
1895.8	0.0010221
1893.9	0.0014083
1891.9	0.0018039
1890.0	0.0021190
1888.1	0.0022543
1886.1	0.0022142
1884.2	0.0020677
1882.3	0.0018636
1880.4	0.0016440
1878.4	0.0014382
1876.5	0.0012455
1874.6	0.0010591
1872.6	0.0009157
1870.7	0.0008359
1868.8	0.0007276
1866.9	0.0005276
1864.9	0.0003280
1863.0	0.0002090
1861.1	0.0001476
1859.1	0.0001071
1857.2	0.0000743
1855.3	0.0000487
1853.4	0.0000304
1851.4	0.0000231
1849.5	0.0000419
1847.6	0.0001327
1845.6	0.0002814
1843.7	0.0003071
1841.8	0.0001598
1839.9	0.0000365
1837.9	0.0000128
1836.0	0.0000145
1834.1	0.0000358
1832.1	0.0001123
1830.2	0.0001821
1828.3	0.0001746
1826.4	0.0001401
1824.4	0.0000996
1822.5	0.0000381
1820.6	0.0000037
1818.6	0.0000052
1816.7	0.0000062
1814.8	0.0000082
1812.9	0.0000346
1810.9	0.0000599
1809.0	0.0000445
1807.1	0.0000132
1805.1	0.0000172
1803.2	0.0000698
1801.3	0.0001244
1799.4	0.0001226
1797.4	0.0000931
1795.5	0.0001427
1793.6	0.0002602
1791.6	0.0002723
1789.7	0.0001514
1787.8	0.0000730
1785.9	0.0000891
1783.9	0.0001054
1782.0	0.0000947
1780.1	0.0000774
1778.1	0.0000675
1776.2	0.0001655
1774.3	0.0004146
1772.4	0.0005696
1770.4	0.0004598
1768.5	0.0002689
1766.6	0.0001447
1764.6	0.0001196
1762.7	0.0001738
1760.8	0.0001831
1758.9	0.0001506
1756.9	0.0001393
1755.0	0.0001671
1753.1	0.0002971
1751.1	0.0004216
1749.2	0.0003711
1747.3	0.0002384
1745.4	0.0001720
1743.4	0.0001894
1741.5	0.0002579
1739.6	0.0003012
1737.6	0.0004105
1735.7	0.0007107
1733.8	0.0008425
1731.9	0.0005552
1729.9	0.0002250
1728.0	0.0000872
1726.1	0.0000542
1724.1	0.0000639
1722.2	0.0001467
1720.3	0.0004428
1718.4	0.0008300
1716.4	0.0008734
1714.5	0.0005433
1712.6	0.0002296
1710.6	0.0001140
1708.7	0.0001576
1706.8	0.0002714
1704.9	0.0003868
1702.9	0.0006398
1701.0	0.0009716
1699.1	0.0010566
1697.1	0.0009557
1695.2	0.0007436
1693.3	0.0003797
1691.4	0.0001472
1689.4	0.0001907
1687.5	0.0005247
1685.6	0.0009838
1683.6	0.0009892
1681.7	0.0005266
1679.8	0.0002006
1677.9	0.0002423
1675.9	0.0004023
1674.0	0.0004184
1672.1	0.0003920
1670.1	0.0004291
1668.2	0.0003557
1666.3	0.0002184
1664.4	0.0002151
1662.4	0.0002356
1660.5	0.0001584
1658.6	0.0001369
1656.6	0.0005007
1654.7	0.0012676
1652.8	0.0015964
1650.9	0.0010924
1648.9	0.0006728
1647.0	0.0006844
1645.1	0.0005609
1643.1	0.0002555
1641.2	0.0001109
1639.3	0.0002398
1637.4	0.0005639
1635.4	0.0007119
1633.5	0.0004532
1631.6	0.0001559
1629.6	0.0000983
1627.7	0.0001490
1625.8	0.0002169
1623.9	0.0002672
1621.9	0.0002375
1620.0	0.0003082
1618.1	0.0005817
1616.1	0.0006457
1614.2	0.0003507
1612.3	0.0001129
1610.4	0.0000776
1608.4	0.0000802
1606.5	0.0000639
1604.6	0.0000542
1602.6	0.0000527
1600.7	0.0000466
1598.8	0.0000418
1596.9	0.0000469
1594.9	0.0000531
1593.0	0.0000515
1591.1	0.0000515
1589.1	0.0000560
1587.2	0.0000547
1585.3	0.0000466
1583.4	0.0000404
1581.4	0.0000698
1579.5	0.0002815
1577.6	0.0006671
1575.6	0.0007645
1573.7	0.0004821
1571.8	0.0003570
1569.9	0.0004267
1567.9	0.0003610
1566.0	0.0002379
1564.1	0.0002963
1562.1	0.0007413
1560.2	0.0014070
1558.3	0.0015809
1556.4	0.0011446
1554.4	0.0006887
1552.5	0.0004213
1550.6	0.0002727
1548.6	0.0002400
1546.7	0.0003425
1544.8	0.0006159
1542.9	0.0010478
1540.9	0.0014113
1539.0	0.0012758
1537.1	0.0007768
1535.1	0.0005152
1533.2	0.0004719
1531.3	0.0003548
1529.4	0.0002843
1527.4	0.0003605
1525.5	0.0005139
1523.6	0.0007628
1521.6	0.0009452
1519.7	0.0008257
1517.8	0.0005705
1515.9	0.0003982
1513.9	0.0003183
1512.0	0.0003561
1510.1	0.0006288
1508.1	0.0011144
1506.2	0.0012852
1504.3	0.0008398
1502.4	0.0003589
1500.4	0.0002910
1498.5	0.0004458
1496.6	0.0004999
1494.6	0.0003795
1492.7	0.0003062
1490.8	0.0003674
1488.9	0.0003767
1486.9	0.0002646
1485.0	0.0001452
1483.1	0.0000973
1481.1	0.0001040
1479.2	0.0001501
1477.3	0.0002647
1475.4	0.0004453
1473.4	0.0005760
1471.5	0.0004852
1469.6	0.0002646
1467.6	0.0002063
1465.7	0.0002887
1463.8	0.0002724
1461.9	0.0002402
1459.9	0.0005002
1458.0	0.0008989
1456.1	0.0008785
1454.1	0.0004631
1452.2	0.0001759
1450.3	0.0001496
1448.4	0.0001823
1446.4	0.0001444
1444.5	0.0000711
1442.6	0.0000443
1440.6	0.0001240
1438.7	0.0003422
1436.8	0.0004896
1434.9	0.0003636
1432.9	0.0001839
1431.0	0.0001476
1429.1	0.0001435
1427.1	0.0001156
1425.2	0.0001185
1423.3	0.0001944
1421.4	0.0003833
1419.4	0.0005236
1417.5	0.0004034
1415.6	0.0001849
1413.6	0.0000888
1411.7	0.0000783
1409.8	0.0000811
1407.9	0.0001033
1405.9	0.0001425
1404.0	0.0001502
1402.1	0.0001582
1400.1	0.0002202
1398.2	0.0002857
1396.3	0.0003269
1394.4	0.0003101
1392.4	0.0002074
1390.5	0.0001410
1388.6	0.0001660
1386.6	0.0001564
1384.7	0.0000795
1382.8	0.0000335
1380.9	0.0000436
1378.9	0.0000710
1377.0	0.0001110
1375.1	0.0001456
1373.1	0.0001318
1371.2	0.0000940
1369.3	0.0000793
1367.4	0.0000787
1365.4	0.0000991
1363.5	0.0001429
1361.6	0.0001531
1359.6	0.0001144
1357.7	0.0000803
1355.8	0.0000692
1353.9	0.0000566
1351.9	0.0000442
1350.0	0.0000450
1348.1	0.0000456
1346.1	0.0000399
1344.2	0.0000504
1342.3	0.0000938
1340.4	0.0001403
1338.4	0.0001409
1336.5	0.0001014
1334.6	0.0000677
1332.6	0.0000531
1330.7	0.0000453
1328.8	0.0000388
1326.9	0.0000354
1324.9	0.0000392
1323.0	0.0000488
1321.1	0.0000594
1319.1	0.0000649
1317.2	0.0000592
1315.3	0.0000506
1313.4	0.0000472
1311.4	0.0000458
1309.5	0.0000440
1307.6	0.0000403
1305.6	0.0000351
1303.7	0.0000327
1301.8	0.0000365
1299.9	0.0000470
1297.9	0.0000579
1296.0	0.0000590
1294.1	0.0000512
1292.1	0.0000462
1290.2	0.0000522
1288.3	0.0000634
1286.4	0.0000650
1284.4	0.0000587
1282.5	0.0000574
1280.6	0.0000579
1278.6	0.0000501
1276.7	0.0000396
1274.8	0.0000392
1272.9	0.0000503
1270.9	0.0000591
1269.0	0.0000575
1267.1	0.0000562
1265.1	0.0000603
1263.2	0.0000644
1261.3	0.0000701
1259.4	0.0000759
1257.4	0.0000757
1255.5	0.0000738
1253.6	0.0000759
1251.6	0.0000798
1249.7	0.0000783
1247.8	0.0000706
1245.9	0.0000652
1243.9	0.0000643
1242.0	0.0000637
1240.1	0.0000629
1238.1	0.0000618
1236.2	0.0000584
1234.3	0.0000536
1232.4	0.0000510
1230.4	0.0000519
1228.5	0.0000591
1226.6	0.0000735
1224.6	0.0000832
1222.7	0.0000806
1220.8	0.0000761
1218.9	0.0000721
1216.9	0.0000634
1215.0	0.0000556
1213.1	0.0000584
1211.1	0.0000706
1209.2	0.0000747
1207.3	0.0000624
1205.4	0.0000491
1203.4	0.0000447
1201.5	0.0000491
1199.6	0.0000596
1197.6	0.0000656
1195.7	0.0000646
1193.8	0.0000641
1191.9	0.0000632
1189.9	0.0000608
1188.0	0.0000592
1186.1	0.0000480
1184.1	0.0000199
1182.2	0.0000045
1180.3	0.0000369
1178.4	0.0000839
1176.4	0.0000923
1174.5	0.0000763
1172.6	0.0000661
1170.6	0.0000575
1168.7	0.0000431
1166.8	0.0000352
1164.9	0.0000390
1162.9	0.0000417
1161.0	0.0000385
1159.1	0.0000365
1157.1	0.0000398
1155.2	0.0000457
1153.3	0.0000474
1151.4	0.0000407
1149.4	0.0000277
1147.5	0.0000132
1145.6	0.0000050
1143.6	0.0000114
1141.7	0.0000344
1139.8	0.0000565
1137.9	0.0000619
1135.9	0.0000592
1134.0	0.0000599
1132.1	0.0000594
1130.1	0.0000530
1128.2	0.0000482
1126.3	0.0000510
1124.4	0.0000524
1122.4	0.0000447
1120.5	0.0000333
1118.6	0.0000276
1116.6	0.0000269
1114.7	0.0000273
1112.8	0.0000292
1110.9	0.0000297
1108.9	0.0000298
1107.0	0.0000362
1105.1	0.0000430
1103.1	0.0000402
1101.2	0.0000309
1099.3	0.0000240
1097.4	0.0000215
1095.4	0.0000186
1093.5	0.0000132
1091.6	0.0000139
1089.6	0.0000231
1087.7	0.0000271
1085.8	0.0000218
1083.9	0.0000171
1081.9	0.0000131
1080.0	0.0000031
1078.1	-0.0000067
1076.1	0.0000005
1074.2	0.0000257
1072.3	0.0000469
1070.4	0.0000494
1068.4	0.0000390
1066.5	0.0000284
1064.6	0.0000292
1062.6	0.0000406
1060.7	0.0000447
1058.8	0.0000297
1056.9	0.0000093
1054.9	0.0000067
1053.0	0.0000193
1051.1	0.0000244
1049.1	0.0000177
1047.2	0.0000142
1045.3	0.0000176
1043.4	0.0000183
1041.4	0.0000118
1039.5	0.0000011
1037.6	-0.0000084
1035.6	-0.0000103
1033.7	-0.0000045
1031.8	-0.0000005
1029.9	-0.0000026
1027.9	-0.0000038
1026.0	0.0000024
1024.1	0.0000096
1022.1	0.0000102
1020.2	0.0000103
1018.3	0.0000176
1016.4	0.0000281
1014.4	0.0000347
1012.5	0.0000377
1010.6	0.0000370
1008.6	0.0000375
1006.7	0.0000477
1004.8	0.0000586
1002.9	0.0000521
1000.9	0.0000355
999.0	0.0000298
997.1	0.0000343
995.1	0.0000402
993.2	0.0000490
991.3	0.0000537
989.4	0.0000524
987.4	0.0000551
985.5	0.0000577
983.6	0.0000568
981.6	0.0000592
979.7	0.0000647
977.8	0.0000680
975.9	0.0000667
973.9	0.0000564
972.0	0.0000408
970.1	0.0000380
968.1	0.0000489
966.2	0.0000508
964.3	0.0000375
962.4	0.0000288
960.4	0.0000345
958.5	0.0000382
956.6	0.0000329
954.6	0.0000285
952.7	0.0000277
950.8	0.0000301
948.9	0.0000296
946.9	0.0000210
945.0	0.0000135
943.1	0.0000149
941.1	0.0000172
939.2	0.0000158
937.3	0.0000129
935.4	0.0000013
933.4	-0.0000162
931.5	-0.0000278
929.6	-0.0000346
927.6	-0.0000424
925.7	-0.0000516
923.8	-0.0000579
921.9	-0.0000565
919.9	-0.0000551
918.0	-0.0000653
916.1	-0.0000809
914.1	-0.0000914
912.2	-0.0000881
910.3	-0.0000688
908.4	-0.0000566
906.4	-0.0000679
904.5	-0.0000840
902.6	-0.0000887
900.6	-0.0000826
898.7	-0.0000726
896.8	-0.0000719
894.9	-0.0000843
892.9	-0.0000920
891.0	-0.0000873
889.1	-0.0000801
887.1	-0.0000795
885.2	-0.0000907
883.3	-0.0000989
881.4	-0.0000953
879.4	-0.0000989
877.5	-0.0000989
875.6	-0.0000800
873.6	-0.0000650
871.7	-0.0000670
869.8	-0.0000733
867.9	-0.0000776
865.9	-0.0000894
864.0	-0.0001052
862.1	-0.0001068
860.1	-0.0001036
858.2	-0.0001157
856.3	-0.0001361
854.4	-0.0001357
852.4	-0.0000994
850.5	-0.0000597
848.6	-0.0000530
846.6	-0.0000573
844.7	-0.0000477
842.8	-0.0000511
840.9	-0.0000843
838.9	-0.0001184
837.0	-0.0001188
835.1	-0.0000973
833.1	-0.0000883
831.2	-0.0000795
829.3	-0.0000605
827.4	-0.0000614
825.4	-0.0000771
823.5	-0.0000717
821.6	-0.0000451
819.6	-0.0000228
817.7	-0.0000111
815.8	-0.0000065
813.9	-0.0000046
811.9	0.0000186
810.0	0.0000679
808.1	0.0001031
806.1	0.0000920
804.2	0.0000568
802.3	0.0000353
800.4	0.0000348
798.4	0.0000553
796.5	0.0000887
794.6	0.0001264
792.6	0.0001688
790.7	0.0001864
788.8	0.0001486
786.9	0.0000672
784.9	0.0000123
783.0	0.0000470
781.1	0.0001224
779.1	0.0001559
777.2	0.0001480
775.3	0.0001332
773.4	0.0001348
771.4	0.0001657
769.5	0.0002032
767.6	0.0001994
765.6	0.0001478
763.7	0.0001173
761.8	0.0001652
759.9	0.0002490
757.9	0.0003053
756.0	0.0003389
754.1	0.0003703
752.1	0.0003884
750.2	0.0003674
748.3	0.0003177
746.4	0.0002804
744.4	0.0002644
742.5	0.0002528
740.6	0.0002489
738.6	0.0002690
736.7	0.0003214
734.8	0.0003878
732.9	0.0004642
730.9	0.0005741
729.0	0.0006632
727.1	0.0006699
725.1	0.0006563
723.2	0.0006554
721.3	0.0006986
719.4	0.0008581
717.4	0.0009847
715.5	0.0009542
713.6	0.0009268
711.6	0.0009341
709.7	0.0008960
707.8	0.0009017
705.9	0.0010093
703.9	0.0011545
702.0	0.0012916
700.1	0.0013554
698.1	0.0012365
696.2	0.0010071
694.3	0.0009393
692.4	0.0010817
690.4	0.0012159
688.5	0.0012639
686.6	0.0013236
684.6	0.0014290
682.7	0.0015281
680.8	0.0015398
678.9	0.0014317
676.9	0.0012570
675.0	0.0011171
673.1	0.0010812
671.1	0.0011240
669.2	0.0012436
667.3	0.0014451
665.4	0.0016215
663.4	0.0016785
661.5	0.0015591
659.6	0.0011912
657.6	0.0007569
655.7	0.0007164
653.8	0.0010760
651.9	0.0012911
649.9	0.0012000
648.0	0.0011251
646.1	0.0011766
644.1	0.0011813
642.2	0.0010799
640.3	0.0010044
638.4	0.0010229
636.4	0.0010885
634.5	0.0011449
632.6	0.0011574
630.6	0.0011572
628.7	0.0011435
626.8	0.0010612
624.9	0.0010135
622.9	0.0010907
621.0	0.0011698
619.1	0.0011932
617.1	0.0012142
615.2	0.0012022
613.3	0.0011436
611.4	0.0010971
609.4	0.0011042
607.5	0.0011891
605.6	0.0012567
603.6	0.0011791
601.7	0.0010893
599.8	0.0011149
