3997.9	-0.0000457
3996.0	-0.0000401
3994.1	-0.0000336
3992.1	-0.0000316
3990.2	-0.0000270
3988.3	-0.0000231
3986.3	-0.0000276
3984.4	-0.0000366
3982.5	-0.0000434
3980.6	-0.0000462
3978.6	-0.0000440
3976.7	-0.0000341
3974.8	-0.0000226
3972.8	-0.0000218
3970.9	-0.0000235
3969.0	-0.0000149
3967.1	-0.0000091
3965.1	-0.0000130
3963.2	-0.0000197
3961.3	-0.0000256
3959.3	-0.0000296
3957.4	-0.0000363
3955.5	-0.0000420
3953.6	-0.0000349
3951.6	-0.0000170
3949.7	-0.0000042
3947.8	-0.0000025
3945.8	-0.0000080
3943.9	-0.0000200
3942.0	-0.0000341
3940.1	-0.0000429
3938.1	-0.0000441
3936.2	-0.0000318
3934.3	-0.0000097
3932.3	0.0000005
3930.4	-0.0000121
3928.5	-0.0000336
3926.6	-0.0000487
3924.6	-0.0000496
3922.7	-0.0000338
3920.8	-0.0000154
3918.8	-0.0000181
3916.9	-0.0000411
3915.0	-0.0000594
3913.1	-0.0000631
3911.1	-0.0000631
3909.2	-0.0000607
3907.3	-0.0000463
3905.3	-0.0000277
3903.4	-0.0000189
3901.5	-0.0000205
3899.6	-0.0000310
3897.6	-0.0000475
3895.7	-0.0000598
3893.8	-0.0000619
3891.8	-0.0000598
3889.9	-0.0000540
3888.0	-0.0000394
3886.1	-0.0000296
3884.1	-0.0000303
3882.2	-0.0000220
3880.3	-0.0000153
3878.3	-0.0000333
3876.4	-0.0000537
3874.5	-0.0000574
3872.6	-0.0000436
3870.6	-0.0000197
3868.7	-0.0000058
3866.8	0.0000071
3864.8	0.0000213
3862.9	0.0000024
3861.0	-0.0000442
3859.1	-0.0000614
3857.1	0.0000144
3855.2	0.0001659
3853.3	0.0002436
3851.3	0.0001546
3849.4	0.0000102
3847.5	-0.0000656
3845.6	-0.0000787
3843.6	-0.0000724
3841.7	-0.0000568
3839.8	-0.0000411
3837.8	-0.0000337
3835.9	-0.0000292
3834.0	-0.0000301
3832.1	-0.0000421
3830.1	-0.0000586
3828.2	-0.0000731
3826.3	-0.0000851
3824.3	-0.0000870
3822.4	-0.0000702
3820.5	-0.0000556
3818.6	-0.0000654
3816.6	-0.0000885
3814.7	-0.0001063
3812.8	-0.0001047
3810.8	-0.0000766
3808.9	-0.0000317
3807.0	-0.0000073
3805.1	-0.0000172
3803.1	-0.0000247
3801.2	-0.0000288
3799.3	-0.0000477
3797.3	-0.0000633
3795.4	-0.0000820
3793.5	-0.0001124
3791.6	-0.0001270
3789.6	-0.0001227
3787.7	-0.0001174
3785.8	-0.0001104
3783.8	-0.0000979
3781.9	-0.0000839
3780.0	-0.0000759
3778.1	-0.0000812
3776.1	-0.0000894
3774.2	-0.0000869
3772.3	-0.0000828
3770.3	-0.0000851
3768.4	-0.0000831
3766.5	-0.0000800
3764.6	-0.0000892
3762.6	-0.0000889
3760.7	-0.0000581
3758.8	-0.0000409
3756.8	-0.0000622
3754.9	-0.0000802
3753.0	-0.0000498
3751.1	0.0000244
3749.1	0.0000743
3747.2	0.0001066
3745.3	0.0001498
3743.3	0.0001079
3741.4	-0.0000071
3739.5	-0.0000655
3737.6	-0.0000529
3735.6	-0.0000198
3733.7	-0.0000097
3731.8	-0.0000369
3729.8	-0.0000674
3727.9	-0.0000723
3726.0	-0.0000699
3724.1	-0.0000797
3722.1	-0.0000863
3720.2	-0.0000911
3718.3	-0.0001028
3716.3	-0.0000944
3714.4	-0.0000388
3712.5	0.0000103
3710.6	-0.0000216
3708.6	-0.0000923
3706.7	-0.0001292
3704.8	-0.0001237
3702.8	-0.0001041
3700.9	-0.0001014
3699.0	-0.0001086
3697.1	-0.0001085
3695.1	-0.0000962
3693.2	-0.0000679
3691.3	-0.0000378
3689.3	-0.0000374
3687.4	-0.0000728
3685.5	-0.0001093
3683.6	-0.0001256
3681.6	-0.0001290
3679.7	-0.0001115
3677.8	-0.0000495
3675.8	0.0000196
3673.9	0.0000313
3672.0	0.0000081
3670.1	-0.0000262
3668.1	-0.0000819
3666.2	-0.0001289
3664.3	-0.0001454
3662.3	-0.0001449
3660.4	-0.0001241
3658.5	-0.0000717
3656.6	-0.0000353
3654.6	-0.0000486
3652.7	-0.0000452
3650.8	-0.0000040
3648.8	0.0000026
3646.9	-0.0000452
3645.0	-0.0000953
3643.1	-0.0001206
3641.1	-0.0001359
3639.2	-0.0001447
3637.3	-0.0001343
3635.3	-0.0001115
3633.4	-0.0000854
3631.5	-0.0000447
3629.6	-0.0000184
3627.6	-0.0000533
3625.7	-0.0001111
3623.8	-0.0001357
3621.8	-0.0001332
3619.9	-0.0001251
3618.0	-0.0001181
3616.1	-0.0001057
3614.1	-0.0000824
3612.2	-0.0000575
3610.3	-0.0000463
3608.3	-0.0000651
3606.4	-0.0001074
3604.5	-0.0001368
3602.6	-0.0001354
3600.6	-0.0001187
3598.7	-0.0001079
3596.8	-0.0001088
3594.8	-0.0001153
3592.9	-0.0001290
3591.0	-0.0001436
3589.1	-0.0001412
3587.1	-0.0001308
3585.2	-0.0001326
3583.3	-0.0001422
3581.3	-0.0001484
3579.4	-0.0001465
3577.5	-0.0001378
3575.6	-0.0001337
3573.6	-0.0001395
3571.7	-0.0001415
3569.8	-0.0001215
3567.8	-0.0000913
3565.9	-0.0000891
3564.0	-0.0001188
3562.1	-0.0001473
3560.1	-0.0001518
3558.2	-0.0001387
3556.3	-0.0001360
3554.3	-0.0001514
3552.4	-0.0001665
3550.5	-0.0001670
3548.6	-0.0001507
3546.6	-0.0001368
3544.7	-0.0001410
3542.8	-0.0001486
3540.8	-0.0001422
3538.9	-0.0001265
3537.0	-0.0001164
3535.1	-0.0001183
3533.1	-0.0001278
3531.2	-0.0001370
3529.3	-0.0001365
3527.3	-0.0001289
3525.4	-0.0001247
3523.5	-0.0001251
3521.6	-0.0001270
3519.6	-0.0001335
3517.7	-0.0001459
3515.8	-0.0001555
3513.8	-0.0001548
3511.9	-0.0001472
3510.0	-0.0001380
3508.1	-0.0001293
3506.1	-0.0001228
3504.2	-0.0001226
3502.3	-0.0001288
3500.3	-0.0001350
3498.4	-0.0001369
3496.5	-0.0001360
3494.6	-0.0001336
3492.6	-0.0001323
3490.7	-0.0001356
3488.8	-0.0001379
3486.8	-0.0001318
3484.9	-0.0001256
3483.0	-0.0001224
3481.1	-0.0001171
3479.1	-0.0001137
3477.2	-0.0001164
3475.3	-0.0001198
3473.3	-0.0001165
3471.4	-0.0001082
3469.5	-0.0001039
3467.6	-0.0001075
3465.6	-0.0001114
3463.7	-0.0001088
3461.8	-0.0001015
3459.8	-0.0000980
3457.9	-0.0001025
3456.0	-0.0001080
3454.1	-0.0001111
3452.1	-0.0001155
3450.2	-0.0001182
3448.3	-0.0001116
3446.3	-0.0000998
3444.4	-0.0000953
3442.5	-0.0000927
3440.6	-0.0000857
3438.6	-0.0000820
3436.7	-0.0000852
3434.8	-0.0000880
3432.8	-0.0000837
3430.9	-0.0000830
3429.0	-0.0000945
3427.1	-0.0001031
3425.1	-0.0001021
3423.2	-0.0000964
3421.3	-0.0000889
3419.3	-0.0000887
3417.4	-0.0000967
3415.5	-0.0000989
3413.6	-0.0000908
3411.6	-0.0000829
3409.7	-0.0000836
3407.8	-0.0000893
3405.8	-0.0000874
3403.9	-0.0000772
3402.0	-0.0000727
3400.1	-0.0000755
3398.1	-0.0000789
3396.2	-0.0000824
3394.3	-0.0000808
3392.3	-0.0000709
3390.4	-0.0000657
3388.5	-0.0000751
3386.6	-0.0000866
3384.6	-0.0000844
3382.7	-0.0000697
3380.8	-0.0000564
3378.8	-0.0000554
3376.9	-0.0000654
3375.0	-0.0000723
3373.1	-0.0000646
3371.1	-0.0000502
3369.2	-0.0000475
3367.3	-0.0000628
3365.3	-0.0000790
3363.4	-0.0000765
3361.5	-0.0000568
3359.6	-0.0000381
3357.6	-0.0000329
3355.7	-0.0000375
3353.8	-0.0000423
3351.8	-0.0000481
3349.9	-0.0000577
3348.0	-0.0000629
3346.1	-0.0000575
3344.1	-0.0000449
3342.2	-0.0000345
3340.3	-0.0000401
3338.3	-0.0000575
3336.4	-0.0000625
3334.5	-0.0000524
3332.6	-0.0000414
3330.6	-0.0000338
3328.7	-0.0000282
3326.8	-0.0000243
3324.8	-0.0000210
3322.9	-0.0000203
3321.0	-0.0000234
3319.1	-0.0000231
3317.1	-0.0000182
3315.2	-0.0000211
3313.3	-0.0000303
3311.3	-0.0000324
3309.4	-0.0000274
3307.5	-0.0000208
3305.6	-0.0000124
3303.6	-0.0000061
3301.7	-0.0000058
3299.8	-0.0000130
3297.8	-0.0000322
3295.9	-0.0000565
3294.0	-0.0000595
3292.1	-0.0000344
3290.1	-0.0000107
3288.2	-0.0000058
3286.3	-0.0000079
3284.3	-0.0000098
3282.4	-0.0000124
3280.5	-0.0000126
3278.6	-0.0000083
3276.6	-0.0000012
3274.7	0.0000067
3272.8	0.0000118
3270.8	0.0000163
3268.9	0.0000257
3267.0	0.0000359
3265.1	0.0000373
3263.1	0.0000301
3261.2	0.0000281
3259.3	0.0000371
3257.3	0.0000458
3255.4	0.0000440
3253.5	0.0000336
3251.6	0.0000238
3249.6	0.0000217
3247.7	0.0000267
3245.8	0.0000321
3243.8	0.0000341
3241.9	0.0000374
3240.0	0.0000476
3238.1	0.0000582
3236.1	0.0000603
3234.2	0.0000581
3232.3	0.0000559
3230.3	0.0000493
3228.4	0.0000385
3226.5	0.0000318
3224.6	0.0000325
3222.6	0.0000320
3220.7	0.0000289
3218.8	0.0000340
3216.8	0.0000441
3214.9	0.0000435
3213.0	0.0000321
3211.1	0.0000261
3209.1	0.0000279
3207.2	0.0000264
3205.3	0.0000218
3203.3	0.0000173
3201.4	0.0000095
3199.5	-0.0000007
3197.6	-0.0000058
3195.6	-0.0000044
3193.7	-0.0000058
3191.8	-0.0000118
3189.8	-0.0000152
3187.9	-0.0000178
3186.0	-0.0000241
3184.1	-0.0000292
3182.1	-0.0000245
3180.2	-0.0000124
3178.3	-0.0000074
3176.3	-0.0000156
3174.4	-0.0000286
3172.5	-0.0000355
3170.6	-0.0000335
3168.6	-0.0000298
3166.7	-0.0000285
3164.8	-0.0000294
3162.8	-0.0000328
3160.9	-0.0000332
3159.0	-0.0000286
3157.1	-0.0000252
3155.1	-0.0000301
3153.2	-0.0000403
3151.3	-0.0000446
3149.3	-0.0000425
3147.4	-0.0000415
3145.5	-0.0000428
3143.6	-0.0000459
3141.6	-0.0000506
3139.7	-0.0000539
3137.8	-0.0000561
3135.8	-0.0000603
3133.9	-0.0000693
3132.0	-0.0000806
3130.1	-0.0000845
3128.1	-0.0000798
3126.2	-0.0000773
3124.3	-0.0000797
3122.3	-0.0000814
3120.4	-0.0000847
3118.5	-0.0000930
3116.6	-0.0001009
3114.6	-0.0001025
3112.7	-0.0000994
3110.8	-0.0001008
3108.8	-0.0001085
3106.9	-0.0001169
3105.0	-0.0001250
3103.1	-0.0001305
3101.1	-0.0001305
3099.2	-0.0001293
3097.3	-0.0001319
3095.3	-0.0001342
3093.4	-0.0001322
3091.5	-0.0001326
3089.6	-0.0001383
3087.6	-0.0001454
3085.7	-0.0001499
3083.8	-0.0001508
3081.8	-0.0001530
3079.9	-0.0001595
3078.0	-0.0001667
3076.1	-0.0001692
3074.1	-0.0001665
3072.2	-0.0001613
3070.3	-0.0001538
3068.3	-0.0001497
3066.4	-0.0001528
3064.5	-0.0001546
3062.6	-0.0001545
3060.6	-0.0001574
3058.7	-0.0001589
3056.8	-0.0001579
3054.8	-0.0001586
3052.9	-0.0001607
3051.0	-0.0001628
3049.1	-0.0001622
3047.1	-0.0001566
3045.2	-0.0001521
3043.3	-0.0001572
3041.3	-0.0001685
3039.4	-0.0001737
3037.5	-0.0001692
3035.6	-0.0001650
3033.6	-0.0001624
3031.7	-0.0001568
3029.8	-0.0001576
3027.8	-0.0001642
3025.9	-0.0001621
3024.0	-0.0001547
3022.1	-0.0001545
3020.1	-0.0001652
3018.2	-0.0001799
3016.3	-0.0001831
3014.3	-0.0001700
3012.4	-0.0001518
3010.5	-0.0001407
3008.6	-0.0001414
3006.6	-0.0001479
3004.7	-0.0001504
3002.8	-0.0001493
3000.8	-0.0001479
2998.9	-0.0001467
2997.0	-0.0001453
2995.1	-0.0001421
2993.1	-0.0001396
2991.2	-0.0001441
2989.3	-0.0001514
2987.3	-0.0001542
2985.4	-0.0001542
2983.5	-0.0001542
2981.6	-0.0001529
2979.6	-0.0001496
2977.7	-0.0001456
2975.8	-0.0001421
2973.8	-0.0001407
2971.9	-0.0001419
2970.0	-0.0001401
2968.1	-0.0001348
2966.1	-0.0001329
2964.2	-0.0001323
2962.3	-0.0001302
2960.3	-0.0001295
2958.4	-0.0001276
2956.5	-0.0001225
2954.6	-0.0001195
2952.6	-0.0001229
2950.7	-0.0001276
2948.8	-0.0001294
2946.8	-0.0001307
2944.9	-0.0001284
2943.0	-0.0001226
2941.1	-0.0001250
2939.1	-0.0001359
2937.2	-0.0001425
2935.3	-0.0001379
2933.3	-0.0001273
2931.4	-0.0001211
2929.5	-0.0001181
2927.6	-0.0001104
2925.6	-0.0001076
2923.7	-0.0001159
2921.8	-0.0001212
2919.8	-0.0001207
2917.9	-0.0001202
2916.0	-0.0001187
2914.1	-0.0001156
2912.1	-0.0001121
2910.2	-0.0001110
2908.3	-0.0001119
2906.3	-0.0001122
2904.4	-0.0001106
2902.5	-0.0001074
2900.6	-0.0001079
2898.6	-0.0001158
2896.7	-0.0001218
2894.8	-0.0001172
2892.8	-0.0001091
2890.9	-0.0001076
2889.0	-0.0001112
2887.1	-0.0001166
2885.1	-0.0001179
2883.2	-0.0001096
2881.3	-0.0001013
2879.3	-0.0001025
2877.4	-0.0001059
2875.5	-0.0001051
2873.6	-0.0001047
2871.6	-0.0001030
2869.7	-0.0000957
2867.8	-0.0000941
2865.8	-0.0001024
2863.9	-0.0001085
2862.0	-0.0001071
2860.1	-0.0001011
2858.1	-0.0000961
2856.2	-0.0000979
2854.3	-0.0000994
2852.3	-0.0000930
2850.4	-0.0000891
2848.5	-0.0000921
2846.6	-0.0000918
2844.6	-0.0000881
2842.7	-0.0000881
2840.8	-0.0000910
2838.8	-0.0000947
2836.9	-0.0000995
2835.0	-0.0001055
2833.1	-0.0001066
2831.1	-0.0000985
2829.2	-0.0000912
2827.3	-0.0000906
2825.3	-0.0000901
2823.4	-0.0000878
2821.5	-0.0000860
2819.6	-0.0000839
2817.6	-0.0000822
2815.7	-0.0000805
2813.8	-0.0000783
2811.8	-0.0000811
2809.9	-0.0000880
2808.0	-0.0000900
2806.1	-0.0000868
2804.1	-0.0000838
2802.2	-0.0000814
2800.3	-0.0000785
2798.3	-0.0000784
2796.4	-0.0000812
2794.5	-0.0000809
2792.6	-0.0000777
2790.6	-0.0000776
2788.7	-0.0000791
2786.8	-0.0000773
2784.8	-0.0000729
2782.9	-0.0000716
2781.0	-0.0000745
2779.1	-0.0000763
2777.1	-0.0000736
2775.2	-0.0000682
2773.3	-0.0000665
2771.3	-0.0000704
2769.4	-0.0000721
2767.5	-0.0000678
2765.6	-0.0000624
2763.6	-0.0000603
2761.7	-0.0000626
2759.8	-0.0000645
2757.8	-0.0000646
2755.9	-0.0000675
2754.0	-0.0000687
2752.1	-0.0000614
2750.1	-0.0000504
2748.2	-0.0000440
2746.3	-0.0000430
2744.3	-0.0000458
2742.4	-0.0000519
2740.5	-0.0000551
2738.6	-0.0000543
2736.6	-0.0000559
2734.7	-0.0000586
2732.8	-0.0000592
2730.8	-0.0000581
2728.9	-0.0000538
2727.0	-0.0000486
2725.1	-0.0000471
2723.1	-0.0000469
2721.2	-0.0000452
2719.3	-0.0000425
2717.3	-0.0000412
2715.4	-0.0000419
2713.5	-0.0000417
2711.6	-0.0000417
2709.6	-0.0000423
2707.7	-0.0000408
2705.8	-0.0000404
2703.8	-0.0000430
2701.9	-0.0000446
2700.0	-0.0000462
2698.1	-0.0000474
2696.1	-0.0000461
2694.2	-0.0000467
2692.3	-0.0000475
2690.3	-0.0000422
2688.4	-0.0000354
2686.5	-0.0000335
2684.6	-0.0000344
2682.6	-0.0000334
2680.7	-0.0000296
2678.8	-0.0000258
2676.8	-0.0000261
2674.9	-0.0000319
2673.0	-0.0000397
2671.1	-0.0000400
2669.1	-0.0000311
2667.2	-0.0000244
2665.3	-0.0000241
2663.3	-0.0000246
2661.4	-0.0000257
2659.5	-0.0000256
2657.6	-0.0000223
2655.6	-0.0000222
2653.7	-0.0000259
2651.8	-0.0000246
2649.8	-0.0000154
2647.9	-0.0000094
2646.0	-0.0000132
2644.1	-0.0000143
2642.1	-0.0000055
2640.2	0.0000023
2638.3	0.0000001
2636.3	-0.0000098
2634.4	-0.0000205
2632.5	-0.0000254
2630.6	-0.0000237
2628.6	-0.0000212
2626.7	-0.0000175
2624.8	-0.0000087
2622.8	0.0000022
2620.9	0.0000079
2619.0	0.0000057
2617.1	-0.0000007
2615.1	-0.0000049
2613.2	-0.0000071
2611.3	-0.0000120
2609.3	-0.0000139
2607.4	-0.0000083
2605.5	-0.0000055
2603.6	-0.0000061
2601.6	-0.0000052
2599.7	-0.0000099
2597.8	-0.0000148
2595.8	-0.0000061
2593.9	0.0000072
2592.0	0.0000118
2590.1	0.0000117
2588.1	0.0000101
2586.2	0.0000071
2584.3	0.0000087
2582.3	0.0000136
2580.4	0.0000160
2578.5	0.0000142
2576.6	0.0000081
2574.6	0.0000029
2572.7	0.0000067
2570.8	0.0000172
2568.8	0.0000228
2566.9	0.0000182
2565.0	0.0000103
2563.1	0.0000083
2561.1	0.0000165
2559.2	0.0000269
2557.3	0.0000287
2555.3	0.0000258
2553.4	0.0000242
2551.5	0.0000224
2549.6	0.0000224
2547.6	0.0000269
2545.7	0.0000346
2543.8	0.0000414
2541.8	0.0000425
2539.9	0.0000401
2538.0	0.0000394
2536.1	0.0000409
2534.1	0.0000420
2532.2	0.0000426
2530.3	0.0000424
2528.3	0.0000387
2526.4	0.0000366
2524.5	0.0000412
2522.6	0.0000455
2520.6	0.0000435
2518.7	0.0000388
2516.8	0.0000357
2514.8	0.0000336
2512.9	0.0000315
2511.0	0.0000287
2509.1	0.0000281
2507.1	0.0000373
2505.2	0.0000520
2503.3	0.0000567
2501.3	0.0000493
2499.4	0.0000405
2497.5	0.0000359
2495.6	0.0000373
2493.6	0.0000416
2491.7	0.0000428
2489.8	0.0000415
2487.8	0.0000397
2485.9	0.0000399
2484.0	0.0000432
2482.1	0.0000443
2480.1	0.0000428
2478.2	0.0000442
2476.3	0.0000497
2474.3	0.0000540
2472.4	0.0000541
2470.5	0.0000507
2468.6	0.0000469
2466.6	0.0000483
2464.7	0.0000547
2462.8	0.0000579
2460.8	0.0000565
2458.9	0.0000532
2457.0	0.0000484
2455.1	0.0000426
2453.1	0.0000395
2451.2	0.0000430
2449.3	0.0000503
2447.3	0.0000532
2445.4	0.0000521
2443.5	0.0000544
2441.6	0.0000584
2439.6	0.0000603
2437.7	0.0000597
2435.8	0.0000521
2433.8	0.0000422
2431.9	0.0000430
2430.0	0.0000517
2428.1	0.0000580
2426.1	0.0000622
2424.2	0.0000657
2422.3	0.0000634
2420.3	0.0000592
2418.4	0.0000606
2416.5	0.0000605
2414.6	0.0000562
2412.6	0.0000546
2410.7	0.0000547
2408.8	0.0000530
2406.8	0.0000497
2404.9	0.0000445
2403.0	0.0000395
2401.1	0.0000400
2399.1	0.0000451
2397.2	0.0000489
2395.3	0.0000495
2393.3	0.0000494
2391.4	0.0000515
2389.5	0.0000549
2387.6	0.0000588
2385.6	0.0000633
2383.7	0.0000645
2381.8	0.0000598
2379.8	0.0000573
2377.9	0.0000609
2376.0	0.0000644
2374.1	0.0000662
2372.1	0.0000699
2370.2	0.0000746
2368.3	0.0000787
2366.3	0.0000794
2364.4	0.0000754
2362.5	0.0000728
2360.6	0.0000744
2358.6	0.0000723
2356.7	0.0000648
2354.8	0.0000591
2352.8	0.0000560
2350.9	0.0000534
2349.0	0.0000560
2347.1	0.0000628
2345.1	0.0000660
2343.2	0.0000662
2341.3	0.0000686
2339.3	0.0000726
2337.4	0.0000766
2335.5	0.0000818
2333.6	0.0000868
2331.6	0.0000912
2329.7	0.0000954
2327.8	0.0000971
2325.8	0.0000928
2323.9	0.0000849
2322.0	0.0000795
2320.1	0.0000801
2318.1	0.0000851
2316.2	0.0000862
2314.3	0.0000800
2312.3	0.0000742
2310.4	0.0000741
2308.5	0.0000773
2306.6	0.0000806
2304.6	0.0000817
2302.7	0.0000803
2300.8	0.0000807
2298.8	0.0000828
2296.9	0.0000798
2295.0	0.0000734
2293.1	0.0000698
2291.1	0.0000691
2289.2	0.0000694
2287.3	0.0000718
2285.3	0.0000767
2283.4	0.0000841
2281.5	0.0000888
2279.6	0.0000846
2277.6	0.0000781
2275.7	0.0000732
2273.8	0.0000683
2271.8	0.0000691
2269.9	0.0000751
2268.0	0.0000778
2266.1	0.0000753
2264.1	0.0000696
2262.2	0.0000623
2260.3	0.0000595
2258.3	0.0000666
2256.4	0.0000793
2254.5	0.0000883
2252.6	0.0000879
2250.6	0.0000813
2248.7	0.0000736
2246.8	0.0000663
2244.8	0.0000607
2242.9	0.0000566
2241.0	0.0000555
2239.1	0.0000545
2237.1	0.0000490
2235.2	0.0000414
2233.3	0.0000411
2231.3	0.0000492
2229.4	0.0000570
2227.5	0.0000609
2225.6	0.0000617
2223.6	0.0000602
2221.7	0.0000595
2219.8	0.0000612
2217.8	0.0000635
2215.9	0.0000641
2214.0	0.0000635
2212.1	0.0000630
2210.1	0.0000651
2208.2	0.0000665
2206.3	0.0000649
2204.3	0.0000656
2202.4	0.0000679
2200.5	0.0000683
2198.6	0.0000697
2196.6	0.0000741
2194.7	0.0000763
2192.8	0.0000760
2190.8	0.0000781
2188.9	0.0000836
2187.0	0.0000897
2185.1	0.0000942
2183.1	0.0000992
2181.2	0.0001005
2179.3	0.0000977
2177.3	0.0000961
2175.4	0.0000928
2173.5	0.0000900
2171.6	0.0000948
2169.6	0.0001037
2167.7	0.0001078
2165.8	0.0001082
2163.8	0.0001092
2161.9	0.0001103
2160.0	0.0001142
2158.1	0.0001187
2156.1	0.0001215
2154.2	0.0001205
2152.3	0.0001194
2150.3	0.0001255
2148.4	0.0001329
2146.5	0.0001351
2144.6	0.0001388
2142.6	0.0001493
2140.7	0.0001574
2138.8	0.0001631
2136.8	0.0001710
2134.9	0.0001785
2133.0	0.0001877
2131.1	0.0001987
2129.1	0.0002148
2127.2	0.0002337
2125.3	0.0002532
2123.3	0.0002741
2121.4	0.0003025
2119.5	0.0003425
2117.6	0.0003866
2115.6	0.0004428
2113.7	0.0005176
2111.8	0.0006168
2109.8	0.0007526
2107.9	0.0009476
2106.0	0.0012479
2104.1	0.0017868
2102.1	0.0029968
2100.2	0.0060439
2098.3	0.0116680
2096.3	0.0167029
2094.4	0.0161273
2092.5	0.0106043
2090.6	0.0050188
2088.6	0.0017070
2086.7	0.0003653
2084.8	0.0001984
2082.8	0.0004002
2080.9	0.0005174
2079.0	0.0004969
2077.1	0.0004222
2075.1	0.0003552
2073.2	0.0003105
2071.3	0.0002747
2069.3	0.0002438
2067.4	0.0002230
2065.5	0.0002122
2063.6	0.0002125
2061.6	0.0002126
2059.7	0.0002021
2057.8	0.0001784
2055.8	0.0001501
2053.9	0.0001292
2052.0	0.0001203
2050.1	0.0001202
2048.1	0.0001163
2046.2	0.0001057
2044.3	0.0000896
2042.3	0.0000673
2040.4	0.0000390
2038.5	0.0000150
2036.6	0.0000075
2034.6	0.0000087
2032.7	0.0000085
2030.8	0.0000050
2028.8	0.0000043
2026.9	0.0000055
2025.0	0.0000068
2023.1	0.0000113
2021.1	0.0000156
2019.2	0.0000184
2017.3	0.0000169
2015.3	0.0000101
2013.4	0.0000040
2011.5	0.0000019
2009.6	0.0000032
2007.6	0.0000019
2005.7	-0.0000042
2003.8	-0.0000098
2001.8	-0.0000103
1999.9	-0.0000108
1998.0	-0.0000154
1996.1	-0.0000182
1994.1	-0.0000137
1992.2	-0.0000077
1990.3	-0.0000107
1988.3	-0.0000211
1986.4	-0.0000310
1984.5	-0.0000323
1982.6	-0.0000242
1980.6	-0.0000183
1978.7	-0.0000200
1976.8	-0.0000251
1974.8	-0.0000292
1972.9	-0.0000312
1971.0	-0.0000285
1969.1	-0.0000200
1967.1	-0.0000162
1965.2	-0.0000218
1963.3	-0.0000295
1961.4	-0.0000323
1959.4	-0.0000313
1957.5	-0.0000299
1955.6	-0.0000280
1953.6	-0.0000265
1951.7	-0.0000259
1949.8	-0.0000228
1947.9	-0.0000190
1945.9	-0.0000185
1944.0	-0.0000156
1942.1	-0.0000111
1940.1	-0.0000134
1938.2	-0.0000187
1936.3	-0.0000208
1934.4	-0.0000202
1932.4	-0.0000200
1930.5	-0.0000234
1928.6	-0.0000287
1926.6	-0.0000307
1924.7	-0.0000254
1922.8	-0.0000178
1920.9	-0.0000080
1918.9	0.0000038
1917.0	0.0000068
1915.1	0.0000036
1913.1	0.0000082
1911.2	0.0000183
1909.3	0.0000279
1907.4	0.0000430
1905.4	0.0000706
1903.5	0.0001099
1901.6	0.0001563
1899.6	0.0002129
1897.7	0.0002833
1895.8	0.0003578
1893.9	0.0004266
1891.9	0.0004965
1890.0	0.0005710
1888.1	0.0006388
1886.1	0.0006997
1884.2	0.0007661
1882.3	0.0008362
1880.4	0.0008956
1878.4	0.0009456
1876.5	0.0010062
1874.6	0.0010976
1872.6	0.0012322
1870.7	0.0013699
1868.8	0.0013973
1866.9	0.0012491
1864.9	0.0009950
1863.0	0.0007404
1861.1	0.0005341
1859.1	0.0003821
1857.2	0.0002751
1855.3	0.0001960
1853.4	0.0001318
1851.4	0.0000840
1849.5	0.0000547
1847.6	0.0000483
1845.6	0.0000595
1843.7	0.0000460
1841.8	-0.0000055
1839.9	-0.0000488
1837.9	-0.0000657
1836.0	-0.0000740
1834.1	-0.0000750
1832.1	-0.0000623
1830.2	-0.0000500
1828.3	-0.0000507
1826.4	-0.0000549
1824.4	-0.0000627
1822.5	-0.0000781
1820.6	-0.0000867
1818.6	-0.0000817
1816.7	-0.0000759
1814.8	-0.0000779
1812.9	-0.0000810
1810.9	-0.0000848
1809.0	-0.0000949
1807.1	-0.0001034
1805.1	-0.0001008
1803.2	-0.0000899
1801.3	-0.0000843
1799.4	-0.0000899
1797.4	-0.0000956
1795.5	-0.0000875
1793.6	-0.0000711
1791.6	-0.0000709
1789.7	-0.0000875
1787.8	-0.0000959
1785.9	-0.0000893
1783.9	-0.0000861
1782.0	-0.0000911
1780.1	-0.0000964
1778.1	-0.0000964
1776.2	-0.0000705
1774.3	-0.0000110
1772.4	0.0000250
1770.4	-0.0000038
1768.5	-0.0000509
1766.6	-0.0000768
1764.6	-0.0000816
1762.7	-0.0000741
1760.8	-0.0000728
1758.9	-0.0000769
1756.9	-0.0000760
1755.0	-0.0000642
1753.1	-0.0000313
1751.1	-0.0000041
1749.2	-0.0000139
1747.3	-0.0000382
1745.4	-0.0000493
1743.4	-0.0000460
1741.5	-0.0000337
1739.6	-0.0000203
1737.6	0.0000102
1735.7	0.0000675
1733.8	0.0000826
1731.9	0.0000245
1729.9	-0.0000329
1728.0	-0.0000558
1726.1	-0.0000628
1724.1	-0.0000610
1722.2	-0.0000434
1720.3	0.0000162
1718.4	0.0000967
1716.4	0.0001116
1714.5	0.0000481
1712.6	-0.0000161
1710.6	-0.0000401
1708.7	-0.0000329
1706.8	-0.0000104
1704.9	0.0000125
1702.9	0.0000466
1701.0	0.0000860
1699.1	0.0000913
1697.1	0.0000749
1695.2	0.0000489
1693.3	-0.0000001
1691.4	-0.0000363
1689.4	-0.0000267
1687.5	0.0000479
1685.6	0.0001466
1683.6	0.0001411
1681.7	0.0000368
1679.8	-0.0000333
1677.9	-0.0000271
1675.9	0.0000013
1674.0	0.0000042
1672.1	0.0000058
1670.1	0.0000250
1668.2	0.0000210
1666.3	0.0000001
1664.4	-0.0000001
1662.4	0.0000030
1660.5	-0.0000081
1658.6	-0.0000109
1656.6	0.0000568
1654.7	0.0002157
1652.8	0.0002956
1650.9	0.0001970
1648.9	0.0001108
1647.0	0.0001184
1645.1	0.0000955
1643.1	0.0000270
1641.2	-0.0000119
1639.3	0.0000055
1637.4	0.0000620
1635.4	0.0000889
1633.5	0.0000450
1631.6	-0.0000068
1629.6	-0.0000171
1627.7	-0.0000062
1625.8	0.0000068
1623.9	0.0000158
1621.9	0.0000172
1620.0	0.0000444
1618.1	0.0001081
1616.1	0.0001192
1614.2	0.0000497
1612.3	-0.0000043
1610.4	-0.0000071
1608.4	0.0000013
1606.5	0.0000014
1604.6	-0.0000011
1602.6	-0.0000020
1600.7	-0.0000033
1598.8	-0.0000048
1596.9	-0.0000049
1594.9	-0.0000044
1593.0	-0.0000018
1591.1	0.0000057
1589.1	0.0000144
1587.2	0.0000167
1585.3	0.0000105
1583.4	0.0000045
1581.4	0.0000114
1579.5	0.0000570
1577.6	0.0001386
1575.6	0.0001610
1573.7	0.0001017
1571.8	0.0000728
1569.9	0.0000860
1567.9	0.0000715
1566.0	0.0000449
1564.1	0.0000509
1562.1	0.0001177
1560.2	0.0002298
1558.3	0.0002787
1556.4	0.0002224
1554.4	0.0001453
1552.5	0.0000932
1550.6	0.0000638
1548.6	0.0000576
1546.7	0.0000788
1544.8	0.0001350
1542.9	0.0002211
1540.9	0.0002845
1539.0	0.0002475
1537.1	0.0001535
1535.1	0.0001173
1533.2	0.0001185
1531.3	0.0000918
1529.4	0.0000650
1527.4	0.0000649
1525.5	0.0000837
1523.6	0.0001285
1521.6	0.0001648
1519.7	0.0001465
1517.8	0.0001054
1515.9	0.0000769
1513.9	0.0000622
1512.0	0.0000723
1510.1	0.0001346
1508.1	0.0002459
1506.2	0.0002922
1504.3	0.0002005
1502.4	0.0000909
1500.4	0.0000660
1498.5	0.0000886
1496.6	0.0000979
1494.6	0.0000816
1492.7	0.0000706
1490.8	0.0000782
1488.9	0.0000765
1486.9	0.0000557
1485.0	0.0000369
1483.1	0.0000332
1481.1	0.0000371
1479.2	0.0000453
1477.3	0.0000613
1475.4	0.0000833
1473.4	0.0001037
1471.5	0.0000969
1469.6	0.0000653
1467.6	0.0000577
1465.7	0.0000747
1463.8	0.0000688
1461.9	0.0000572
1459.9	0.0001071
1458.0	0.0001888
1456.1	0.0001867
1454.1	0.0001041
1452.2	0.0000471
1450.3	0.0000422
1448.4	0.0000489
1446.4	0.0000395
1444.5	0.0000209
1442.6	0.0000185
1440.6	0.0000454
1438.7	0.0000951
1436.8	0.0001249
1434.9	0.0000992
1432.9	0.0000602
1431.0	0.0000518
1429.1	0.0000550
1427.1	0.0000512
1425.2	0.0000446
1423.3	0.0000524
1421.4	0.0000930
1419.4	0.0001259
1417.5	0.0000992
1415.6	0.0000525
1413.6	0.0000337
1411.7	0.0000327
1409.8	0.0000365
1407.9	0.0000476
1405.9	0.0000620
1404.0	0.0000653
1402.1	0.0000659
1400.1	0.0000782
1398.2	0.0000891
1396.3	0.0000925
1394.4	0.0000860
1392.4	0.0000628
1390.5	0.0000427
1388.6	0.0000382
1386.6	0.0000327
1384.7	0.0000221
1382.8	0.0000199
1380.9	0.0000277
1378.9	0.0000369
1377.0	0.0000452
1375.1	0.0000487
1373.1	0.0000436
1371.2	0.0000395
1369.3	0.0000400
1367.4	0.0000354
1365.4	0.0000293
1363.5	0.0000346
1361.6	0.0000451
1359.6	0.0000433
1357.7	0.0000334
1355.8	0.0000319
1353.9	0.0000345
1351.9	0.0000325
1350.0	0.0000294
1348.1	0.0000256
1346.1	0.0000205
1344.2	0.0000213
1342.3	0.0000333
1340.4	0.0000460
1338.4	0.0000467
1336.5	0.0000400
1334.6	0.0000357
1332.6	0.0000343
1330.7	0.0000314
1328.8	0.0000255
1326.9	0.0000203
1324.9	0.0000204
1323.0	0.0000237
1321.1	0.0000273
1319.1	0.0000306
1317.2	0.0000277
1315.3	0.0000200
1313.4	0.0000135
1311.4	0.0000132
1309.5	0.0000191
1307.6	0.0000202
1305.6	0.0000119
1303.7	0.0000051
1301.8	0.0000087
1299.9	0.0000206
1297.9	0.0000300
1296.0	0.0000281
1294.1	0.0000225
1292.1	0.0000242
1290.2	0.0000283
1288.3	0.0000277
1286.4	0.0000237
1284.4	0.0000205
1282.5	0.0000211
1280.6	0.0000225
1278.6	0.0000189
1276.7	0.0000132
1274.8	0.0000134
1272.9	0.0000190
1270.9	0.0000210
1269.0	0.0000181
1267.1	0.0000205
1265.1	0.0000311
1263.2	0.0000386
1261.3	0.0000381
1259.4	0.0000368
1257.4	0.0000363
1255.5	0.0000336
1253.6	0.0000336
1251.6	0.0000388
1249.7	0.0000399
1247.8	0.0000328
1245.9	0.0000267
1243.9	0.0000279
1242.0	0.0000310
1240.1	0.0000290
1238.1	0.0000257
1236.2	0.0000254
1234.3	0.0000251
1232.4	0.0000250
1230.4	0.0000242
1228.5	0.0000233
1226.6	0.0000284
1224.6	0.0000342
1222.7	0.0000307
1220.8	0.0000267
1218.9	0.0000292
1216.9	0.0000327
1215.0	0.0000340
1213.1	0.0000335
1211.1	0.0000355
1209.2	0.0000405
1207.3	0.0000421
1205.4	0.0000402
1203.4	0.0000377
1201.5	0.0000360
1199.6	0.0000371
1197.6	0.0000384
1195.7	0.0000394
1193.8	0.0000424
1191.9	0.0000414
1189.9	0.0000341
1188.0	0.0000294
1186.1	0.0000241
1184.1	0.0000069
1182.2	-0.0000056
1180.3	0.0000151
1178.4	0.0000457
1176.4	0.0000492
1174.5	0.0000410
1172.6	0.0000400
1170.6	0.0000362
1168.7	0.0000230
1166.8	0.0000101
1164.9	0.0000110
1162.9	0.0000231
1161.0	0.0000293
1159.1	0.0000288
1157.1	0.0000359
1155.2	0.0000434
1153.3	0.0000376
1151.4	0.0000279
1149.4	0.0000234
1147.5	0.0000201
1145.6	0.0000164
1143.6	0.0000171
1141.7	0.0000261
1139.8	0.0000366
1137.9	0.0000408
1135.9	0.0000414
1134.0	0.0000423
1132.1	0.0000418
1130.1	0.0000360
1128.2	0.0000265
1126.3	0.0000230
1124.4	0.0000269
1122.4	0.0000297
1120.5	0.0000305
1118.6	0.0000348
1116.6	0.0000408
1114.7	0.0000426
1112.8	0.0000388
1110.9	0.0000279
1108.9	0.0000154
1107.0	0.0000143
1105.1	0.0000224
1103.1	0.0000254
1101.2	0.0000215
1099.3	0.0000193
1097.4	0.0000182
1095.4	0.0000134
1093.5	0.0000101
1091.6	0.0000084
1089.6	0.0000041
1087.7	0.0000012
1085.8	0.0000006
1083.9	0.0000020
1081.9	0.0000083
1080.0	0.0000113
1078.1	0.0000044
1076.1	0.0000001
1074.2	0.0000112
1072.3	0.0000305
1070.4	0.0000396
1068.4	0.0000351
1066.5	0.0000295
1064.6	0.0000275
1062.6	0.0000249
1060.7	0.0000218
1058.8	0.0000175
1056.9	0.0000119
1054.9	0.0000114
1053.0	0.0000146
1051.1	0.0000123
1049.1	0.0000107
1047.2	0.0000126
1045.3	0.0000103
1043.4	0.0000087
1041.4	0.0000144
1039.5	0.0000197
1037.6	0.0000125
1035.6	-0.0000038
1033.7	-0.0000104
1031.8	-0.0000045
1029.9	0.0000008
1027.9	0.0000018
1026.0	0.0000031
1024.1	0.0000044
1022.1	0.0000059
1020.2	0.0000112
1018.3	0.0000173
1016.4	0.0000177
1014.4	0.0000126
1012.5	0.0000106
1010.6	0.0000146
1008.6	0.0000188
1006.7	0.0000197
1004.8	0.0000191
1002.9	0.0000167
1000.9	0.0000087
999.0	-0.0000001
997.1	-0.0000013
995.1	0.0000029
993.2	0.0000055
991.3	0.0000057
989.4	0.0000111
987.4	0.0000227
985.5	0.0000293
983.6	0.0000279
981.6	0.0000270
979.7	0.0000300
977.8	0.0000351
975.9	0.0000373
973.9	0.0000291
972.0	0.0000141
970.1	0.0000096
968.1	0.0000186
966.2	0.0000237
964.3	0.0000148
962.4	0.0000049
960.4	0.0000026
958.5	-0.0000041
956.6	-0.0000138
954.6	-0.0000119
952.7	-0.0000015
950.8	0.0000076
948.9	0.0000085
946.9	0.0000028
945.0	-0.0000002
943.1	-0.0000030
941.1	-0.0000094
939.2	-0.0000098
937.3	-0.0000065
935.4	-0.0000136
933.4	-0.0000256
931.5	-0.0000312
929.6	-0.0000361
927.6	-0.0000462
925.7	-0.0000578
923.8	-0.0000611
921.9	-0.0000527
919.9	-0.0000464
918.0	-0.0000453
916.1	-0.0000424
914.1	-0.0000479
912.2	-0.0000593
910.3	-0.0000580
908.4	-0.0000493
906.4	-0.0000474
904.5	-0.0000515
902.6	-0.0000554
900.6	-0.0000500
898.7	-0.0000404
896.8	-0.0000446
894.9	-0.0000587
892.9	-0.0000611
891.0	-0.0000486
889.1	-0.0000336
887.1	-0.0000285
885.2	-0.0000387
883.3	-0.0000445
881.4	-0.0000370
879.4	-0.0000390
877.5	-0.0000509
875.6	-0.0000494
873.6	-0.0000322
871.7	-0.0000187
869.8	-0.0000143
867.9	-0.0000161
865.9	-0.0000392
864.0	-0.0000688
862.1	-0.0000667
860.1	-0.0000488
858.2	-0.0000529
856.3	-0.0000704
854.4	-0.0000656
852.4	-0.0000381
850.5	-0.0000190
848.6	-0.0000170
846.6	-0.0000081
844.7	0.0000144
842.8	0.0000153
840.9	-0.0000155
838.9	-0.0000370
837.0	-0.0000203
835.1	0.0000079
833.1	0.0000124
831.2	0.0000016
829.3	-0.0000069
827.4	-0.0000177
825.4	-0.0000236
823.5	-0.0000144
821.6	0.0000020
819.6	0.0000213
817.7	0.0000470
815.8	0.0000545
813.9	0.0000301
811.9	0.0000105
810.0	0.0000302
808.1	0.0000722
806.1	0.0000894
804.2	0.0000774
802.3	0.0000636
800.4	0.0000462
798.4	0.0000351
796.5	0.0000476
794.6	0.0000720
792.6	0.0001030
790.7	0.0001216
788.8	0.0001026
786.9	0.0000835
784.9	0.0001114
783.0	0.0001600
781.1	0.0001632
779.1	0.0001225
777.2	0.0001019
775.3	0.0000984
773.4	0.0000809
771.4	0.0000901
769.5	0.0001400
767.6	0.0001496
765.6	0.0001036
763.7	0.0000888
761.8	0.0001361
759.9	0.0001862
757.9	0.0001868
756.0	0.0001677
754.1	0.0001603
752.1	0.0001542
750.2	0.0001459
748.3	0.0001283
746.4	0.0001270
744.4	0.0001648
742.5	0.0001928
740.6	0.0001716
738.6	0.0001097
736.7	0.0000303
734.8	-0.0000592
732.9	-0.0001074
730.9	-0.0000526
729.0	0.0000393
727.1	0.0000533
725.1	-0.0000122
723.2	-0.0000829
721.3	-0.0000818
719.4	-0.0000251
717.4	-0.0000535
715.5	-0.0001344
713.6	-0.0001243
711.6	-0.0001268
709.7	-0.0002387
707.8	-0.0003696
705.9	-0.0004380
703.9	-0.0003829
702.0	-0.0002479
700.1	-0.0002394
698.1	-0.0003717
696.2	-0.0004686
694.3	-0.0004651
692.4	-0.0003818
690.4	-0.0003036
688.5	-0.0002912
686.6	-0.0003223
684.6	-0.0003361
682.7	-0.0002833
680.8	-0.0002587
678.9	-0.0002624
676.9	-0.0001976
675.0	-0.0001533
673.1	-0.0001991
671.1	-0.0002150
669.2	-0.0000993
667.3	0.0000741
665.4	0.0001604
663.4	0.0000984
661.5	-0.0001149
659.6	-0.0004298
657.6	-0.0006782
655.7	-0.0006466
653.8	-0.0003438
651.9	-0.0001062
649.9	-0.0001750
648.0	-0.0003472
646.1	-0.0003741
644.1	-0.0003111
642.2	-0.0002864
640.3	-0.0002913
638.4	-0.0002493
636.4	-0.0001683
634.5	-0.0001276
632.6	-0.0001643
630.6	-0.0002250
628.7	-0.0002434
626.8	-0.0002638
624.9	-0.0003000
622.9	-0.0003107
621.0	-0.0003485
619.1	-0.0003925
617.1	-0.0003539
615.2	-0.0003170
613.3	-0.0003325
611.4	-0.0002976
609.4	-0.0002052
607.5	-0.0001357
605.6	-0.0001732
603.6	-0.0003249
601.7	-0.0003955
599.8	-0.0003185
