3997.9	-0.0000431
3996.0	-0.0000422
3994.1	-0.0000403
3992.1	-0.0000385
3990.2	-0.0000302
3988.3	-0.0000242
3986.3	-0.0000278
3984.4	-0.0000347
3982.5	-0.0000433
3980.6	-0.0000530
3978.6	-0.0000515
3976.7	-0.0000334
3974.8	-0.0000171
3972.8	-0.0000206
3970.9	-0.0000305
3969.0	-0.0000290
3967.1	-0.0000283
3965.1	-0.0000388
3963.2	-0.0000504
3961.3	-0.0000519
3959.3	-0.0000467
3957.4	-0.0000506
3955.5	-0.0000612
3953.6	-0.0000582
3951.6	-0.0000414
3949.7	-0.0000290
3947.8	-0.0000315
3945.8	-0.0000370
3943.9	-0.0000341
3942.0	-0.0000373
3940.1	-0.0000541
3938.1	-0.0000622
3936.2	-0.0000459
3934.3	-0.0000183
3932.3	-0.0000090
3930.4	-0.0000274
3928.5	-0.0000502
3926.6	-0.0000558
3924.6	-0.0000437
3922.7	-0.0000255
3920.8	-0.0000048
3918.8	0.0000080
3916.9	-0.0000084
3915.0	-0.0000481
3913.1	-0.0000741
3911.1	-0.0000744
3909.2	-0.0000600
3907.3	-0.0000163
3905.3	0.0000538
3903.4	0.0000966
3901.5	0.0000893
3899.6	0.0000501
3897.6	-0.0000091
3895.7	-0.0000489
3893.8	-0.0000274
3891.8	0.0000055
3889.9	0.0000055
3888.0	0.0000295
3886.1	0.0000688
3884.1	0.0000534
3882.2	0.0000266
3880.3	0.0000178
3878.3	-0.0000091
3876.4	-0.0000269
3874.5	-0.0000055
3872.6	0.0000650
3870.6	0.0001418
3868.7	0.0001387
3866.8	0.0001053
3864.8	0.0000993
3862.9	0.0000607
3861.0	-0.0000118
3859.1	-0.0000225
3857.1	0.0001522
3855.2	0.0004660
3853.3	0.0005851
3851.3	0.0003601
3849.4	0.0000747
3847.5	-0.0000471
3845.6	-0.0000512
3843.6	-0.0000221
3841.7	0.0000412
3839.8	0.0001466
3837.8	0.0002043
3835.9	0.0001529
3834.0	0.0000728
3832.1	0.0000201
3830.1	-0.0000251
3828.2	-0.0000538
3826.3	-0.0000515
3824.3	-0.0000094
3822.4	0.0000627
3820.5	0.0000967
3818.6	0.0001030
3816.6	0.0001085
3814.7	0.0000363
3812.8	-0.0000698
3810.8	-0.0000685
3808.9	0.0000416
3807.0	0.0001205
3805.1	0.0001247
3803.1	0.0001570
3801.2	0.0001702
3799.3	0.0000842
3797.3	-0.0000012
3795.4	-0.0000498
3793.5	-0.0000965
3791.6	-0.0001245
3789.6	-0.0001319
3787.7	-0.0001271
3785.8	-0.0001112
3783.8	-0.0000963
3781.9	-0.0000796
3780.0	-0.0000630
3778.1	-0.0000702
3776.1	-0.0000894
3774.2	-0.0000871
3772.3	-0.0000605
3770.3	-0.0000320
3768.4	-0.0000233
3766.5	-0.0000346
3764.6	-0.0000617
3762.6	-0.0000677
3760.7	-0.0000247
3758.8	-0.0000000
3756.8	-0.0000111
3754.9	0.0000438
3753.0	0.0002034
3751.1	0.0003429
3749.1	0.0003497
3747.2	0.0003684
3745.3	0.0004565
3743.3	0.0003645
3741.4	0.0001264
3739.5	0.0000380
3737.6	0.0001056
3735.6	0.0001659
3733.7	0.0001500
3731.8	0.0000715
3729.8	-0.0000088
3727.9	-0.0000304
3726.0	-0.0000177
3724.1	-0.0000230
3722.1	-0.0000344
3720.2	-0.0000464
3718.3	-0.0000651
3716.3	-0.0000439
3714.4	0.0000638
3712.5	0.0001679
3710.6	0.0001281
3708.6	-0.0000049
3706.7	-0.0000930
3704.8	-0.0000905
3702.8	-0.0000460
3700.9	-0.0000417
3699.0	-0.0000809
3697.1	-0.0001073
3695.1	-0.0000851
3693.2	-0.0000010
3691.3	0.0001246
3689.3	0.0001900
3687.4	0.0001050
3685.5	-0.0000374
3683.6	-0.0000981
3681.6	-0.0000829
3679.7	-0.0000133
3677.8	0.0001399
3675.8	0.0002635
3673.9	0.0002462
3672.0	0.0002020
3670.1	0.0001598
3668.1	0.0000401
3666.2	-0.0000795
3664.3	-0.0001221
3662.3	-0.0001213
3660.4	-0.0000904
3658.5	-0.0000119
3656.6	0.0000471
3654.6	0.0000375
3652.7	0.0000800
3650.8	0.0002067
3648.8	0.0002419
3646.9	0.0001214
3645.0	-0.0000178
3643.1	-0.0000831
3641.1	-0.0001030
3639.2	-0.0001144
3637.3	-0.0001085
3635.3	-0.0000789
3633.4	-0.0000237
3631.5	0.0000906
3629.6	0.0001914
3627.6	0.0001367
3625.7	-0.0000037
3623.8	-0.0000693
3621.8	-0.0000411
3619.9	0.0000103
3618.0	0.0000181
3616.1	0.0000020
3614.1	0.0000142
3612.2	0.0000456
3610.3	0.0000661
3608.3	0.0000440
3606.4	-0.0000233
3604.5	-0.0000787
3602.6	-0.0000894
3600.6	-0.0000804
3598.7	-0.0000728
3596.8	-0.0000647
3594.8	-0.0000591
3592.9	-0.0000682
3591.0	-0.0000717
3589.1	-0.0000418
3587.1	-0.0000192
3585.2	-0.0000399
3583.3	-0.0000699
3581.3	-0.0000830
3579.4	-0.0000908
3577.5	-0.0001004
3575.6	-0.0001067
3573.6	-0.0001056
3571.7	-0.0000880
3569.8	-0.0000415
3567.8	0.0000046
3565.9	-0.0000019
3564.0	-0.0000503
3562.1	-0.0000888
3560.1	-0.0000989
3558.2	-0.0000962
3556.3	-0.0000957
3554.3	-0.0000929
3552.4	-0.0000909
3550.5	-0.0000971
3548.6	-0.0000947
3546.6	-0.0000828
3544.7	-0.0000810
3542.8	-0.0000902
3540.8	-0.0000991
3538.9	-0.0000994
3537.0	-0.0000916
3535.1	-0.0000853
3533.1	-0.0000862
3531.2	-0.0000879
3529.3	-0.0000836
3527.3	-0.0000766
3525.4	-0.0000705
3523.5	-0.0000697
3521.6	-0.0000781
3519.6	-0.0000873
3517.7	-0.0000932
3515.8	-0.0001007
3513.8	-0.0001058
3511.9	-0.0000996
3510.0	-0.0000841
3508.1	-0.0000738
3506.1	-0.0000749
3504.2	-0.0000763
3502.3	-0.0000763
3500.3	-0.0000847
3498.4	-0.0000953
3496.5	-0.0000935
3494.6	-0.0000806
3492.6	-0.0000718
3490.7	-0.0000726
3488.8	-0.0000711
3486.8	-0.0000633
3484.9	-0.0000594
3483.0	-0.0000588
3481.1	-0.0000567
3479.1	-0.0000561
3477.2	-0.0000569
3475.3	-0.0000560
3473.3	-0.0000471
3471.4	-0.0000330
3469.5	-0.0000289
3467.6	-0.0000360
3465.6	-0.0000400
3463.7	-0.0000373
3461.8	-0.0000373
3459.8	-0.0000434
3457.9	-0.0000473
3456.0	-0.0000474
3454.1	-0.0000535
3452.1	-0.0000633
3450.2	-0.0000613
3448.3	-0.0000492
3446.3	-0.0000412
3444.4	-0.0000361
3442.5	-0.0000269
3440.6	-0.0000189
3438.6	-0.0000199
3436.7	-0.0000298
3434.8	-0.0000394
3432.8	-0.0000403
3430.9	-0.0000372
3429.0	-0.0000379
3427.1	-0.0000389
3425.1	-0.0000370
3423.2	-0.0000298
3421.3	-0.0000188
3419.3	-0.0000089
3417.4	-0.0000043
3415.5	-0.0000084
3413.6	-0.0000143
3411.6	-0.0000130
3409.7	-0.0000086
3407.8	-0.0000058
3405.8	-0.0000011
3403.9	0.0000050
3402.0	0.0000055
3400.1	0.0000023
3398.1	-0.0000019
3396.2	-0.0000102
3394.3	-0.0000126
3392.3	0.0000023
3390.4	0.0000189
3388.5	0.0000167
3386.6	0.0000051
3384.6	0.0000037
3382.7	0.0000116
3380.8	0.0000184
3378.8	0.0000196
3376.9	0.0000132
3375.0	0.0000046
3373.1	0.0000069
3371.1	0.0000183
3369.2	0.0000220
3367.3	0.0000130
3365.3	0.0000045
3363.4	0.0000048
3361.5	0.0000098
3359.6	0.0000185
3357.6	0.0000315
3355.7	0.0000434
3353.8	0.0000474
3351.8	0.0000444
3349.9	0.0000407
3348.0	0.0000363
3346.1	0.0000302
3344.1	0.0000295
3342.2	0.0000367
3340.3	0.0000427
3338.3	0.0000403
3336.4	0.0000332
3334.5	0.0000262
3332.6	0.0000255
3330.6	0.0000369
3328.7	0.0000541
3326.8	0.0000644
3324.8	0.0000624
3322.9	0.0000558
3321.0	0.0000520
3319.1	0.0000516
3317.1	0.0000552
3315.2	0.0000609
3313.3	0.0000668
3311.3	0.0000717
3309.4	0.0000725
3307.5	0.0000725
3305.6	0.0000736
3303.6	0.0000711
3301.7	0.0000679
3299.8	0.0000662
3297.8	0.0000570
3295.9	0.0000444
3294.0	0.0000500
3292.1	0.0000704
3290.1	0.0000796
3288.2	0.0000756
3286.3	0.0000756
3284.3	0.0000788
3282.4	0.0000767
3280.5	0.0000736
3278.6	0.0000764
3276.6	0.0000875
3274.7	0.0001018
3272.8	0.0001073
3270.8	0.0001043
3268.9	0.0001060
3267.0	0.0001167
3265.1	0.0001260
3263.1	0.0001230
3261.2	0.0001155
3259.3	0.0001174
3257.3	0.0001242
3255.4	0.0001237
3253.5	0.0001140
3251.6	0.0001027
3249.6	0.0000979
3247.7	0.0001046
3245.8	0.0001170
3243.8	0.0001234
3241.9	0.0001210
3240.0	0.0001157
3238.1	0.0001123
3236.1	0.0001125
3234.2	0.0001145
3232.3	0.0001174
3230.3	0.0001183
3228.4	0.0001093
3226.5	0.0000948
3224.6	0.0000883
3222.6	0.0000871
3220.7	0.0000877
3218.8	0.0000990
3216.8	0.0001153
3214.9	0.0001191
3213.0	0.0001094
3211.1	0.0001004
3209.1	0.0000995
3207.2	0.0001031
3205.3	0.0001041
3203.3	0.0000995
3201.4	0.0000932
3199.5	0.0000891
3197.6	0.0000913
3195.6	0.0000936
3193.7	0.0000851
3191.8	0.0000753
3189.8	0.0000750
3187.9	0.0000758
3186.0	0.0000725
3184.1	0.0000740
3182.1	0.0000839
3180.2	0.0000908
3178.3	0.0000849
3176.3	0.0000745
3174.4	0.0000687
3172.5	0.0000647
3170.6	0.0000584
3168.6	0.0000514
3166.7	0.0000488
3164.8	0.0000485
3162.8	0.0000428
3160.9	0.0000399
3159.0	0.0000446
3157.1	0.0000480
3155.1	0.0000482
3153.2	0.0000518
3151.3	0.0000572
3149.3	0.0000536
3147.4	0.0000441
3145.5	0.0000433
3143.6	0.0000467
3141.6	0.0000468
3139.7	0.0000506
3137.8	0.0000535
3135.8	0.0000463
3133.9	0.0000351
3132.0	0.0000261
3130.1	0.0000199
3128.1	0.0000202
3126.2	0.0000243
3124.3	0.0000253
3122.3	0.0000226
3120.4	0.0000202
3118.5	0.0000203
3116.6	0.0000212
3114.6	0.0000215
3112.7	0.0000218
3110.8	0.0000184
3108.8	0.0000097
3106.9	0.0000004
3105.0	-0.0000074
3103.1	-0.0000118
3101.1	-0.0000112
3099.2	-0.0000134
3097.3	-0.0000218
3095.3	-0.0000271
3093.4	-0.0000272
3091.5	-0.0000257
3089.6	-0.0000246
3087.6	-0.0000279
3085.7	-0.0000327
3083.8	-0.0000324
3081.8	-0.0000313
3079.9	-0.0000356
3078.0	-0.0000418
3076.1	-0.0000435
3074.1	-0.0000403
3072.2	-0.0000359
3070.3	-0.0000337
3068.3	-0.0000370
3066.4	-0.0000385
3064.5	-0.0000312
3062.6	-0.0000272
3060.6	-0.0000325
3058.7	-0.0000365
3056.8	-0.0000341
3054.8	-0.0000330
3052.9	-0.0000380
3051.0	-0.0000422
3049.1	-0.0000375
3047.1	-0.0000305
3045.2	-0.0000318
3043.3	-0.0000410
3041.3	-0.0000490
3039.4	-0.0000480
3037.5	-0.0000414
3035.6	-0.0000385
3033.6	-0.0000388
3031.7	-0.0000376
3029.8	-0.0000380
3027.8	-0.0000419
3025.9	-0.0000444
3024.0	-0.0000426
3022.1	-0.0000411
3020.1	-0.0000492
3018.2	-0.0000635
3016.3	-0.0000678
3014.3	-0.0000576
3012.4	-0.0000441
3010.5	-0.0000371
3008.6	-0.0000389
3006.6	-0.0000407
3004.7	-0.0000352
3002.8	-0.0000332
3000.8	-0.0000399
2998.9	-0.0000445
2997.0	-0.0000430
2995.1	-0.0000393
2993.1	-0.0000386
2991.2	-0.0000429
2989.3	-0.0000491
2987.3	-0.0000541
2985.4	-0.0000548
2983.5	-0.0000515
2981.6	-0.0000479
2979.6	-0.0000445
2977.7	-0.0000407
2975.8	-0.0000362
2973.8	-0.0000354
2971.9	-0.0000417
2970.0	-0.0000474
2968.1	-0.0000479
2966.1	-0.0000485
2964.2	-0.0000485
2962.3	-0.0000477
2960.3	-0.0000479
2958.4	-0.0000424
2956.5	-0.0000327
2954.6	-0.0000288
2952.6	-0.0000304
2950.7	-0.0000339
2948.8	-0.0000394
2946.8	-0.0000434
2944.9	-0.0000395
2943.0	-0.0000307
2941.1	-0.0000300
2939.1	-0.0000389
2937.2	-0.0000435
2935.3	-0.0000397
2933.3	-0.0000350
2931.4	-0.0000307
2929.5	-0.0000253
2927.6	-0.0000210
2925.6	-0.0000247
2923.7	-0.0000336
2921.8	-0.0000353
2919.8	-0.0000315
2917.9	-0.0000274
2916.0	-0.0000211
2914.1	-0.0000187
2912.1	-0.0000264
2910.2	-0.0000376
2908.3	-0.0000414
2906.3	-0.0000363
2904.4	-0.0000294
2902.5	-0.0000267
2900.6	-0.0000305
2898.6	-0.0000378
2896.7	-0.0000424
2894.8	-0.0000410
2892.8	-0.0000377
2890.9	-0.0000370
2889.0	-0.0000368
2887.1	-0.0000377
2885.1	-0.0000394
2883.2	-0.0000365
2881.3	-0.0000300
2879.3	-0.0000291
2877.4	-0.0000344
2875.5	-0.0000355
2873.6	-0.0000320
2871.6	-0.0000301
2869.7	-0.0000283
2867.8	-0.0000281
2865.8	-0.0000313
2863.9	-0.0000326
2862.0	-0.0000313
2860.1	-0.0000283
2858.1	-0.0000231
2856.2	-0.0000208
2854.3	-0.0000217
2852.3	-0.0000184
2850.4	-0.0000160
2848.5	-0.0000234
2846.6	-0.0000328
2844.6	-0.0000334
2842.7	-0.0000275
2840.8	-0.0000230
2838.8	-0.0000231
2836.9	-0.0000282
2835.0	-0.0000387
2833.1	-0.0000446
2831.1	-0.0000373
2829.2	-0.0000289
2827.3	-0.0000284
2825.3	-0.0000279
2823.4	-0.0000268
2821.5	-0.0000280
2819.6	-0.0000279
2817.6	-0.0000239
2815.7	-0.0000174
2813.8	-0.0000159
2811.8	-0.0000246
2809.9	-0.0000340
2808.0	-0.0000343
2806.1	-0.0000290
2804.1	-0.0000269
2802.2	-0.0000279
2800.3	-0.0000268
2798.3	-0.0000255
2796.4	-0.0000257
2794.5	-0.0000235
2792.6	-0.0000209
2790.6	-0.0000200
2788.7	-0.0000176
2786.8	-0.0000142
2784.8	-0.0000138
2782.9	-0.0000148
2781.0	-0.0000136
2779.1	-0.0000128
2777.1	-0.0000127
2775.2	-0.0000109
2773.3	-0.0000126
2771.3	-0.0000206
2769.4	-0.0000243
2767.5	-0.0000214
2765.6	-0.0000213
2763.6	-0.0000229
2761.7	-0.0000219
2759.8	-0.0000188
2757.8	-0.0000146
2755.9	-0.0000144
2754.0	-0.0000155
2752.1	-0.0000098
2750.1	-0.0000017
2748.2	0.0000003
2746.3	-0.0000032
2744.3	-0.0000099
2742.4	-0.0000168
2740.5	-0.0000201
2738.6	-0.0000225
2736.6	-0.0000255
2734.7	-0.0000228
2732.8	-0.0000166
2730.8	-0.0000159
2728.9	-0.0000184
2727.0	-0.0000171
2725.1	-0.0000140
2723.1	-0.0000110
2721.2	-0.0000089
2719.3	-0.0000084
2717.3	-0.0000074
2715.4	-0.0000081
2713.5	-0.0000131
2711.6	-0.0000157
2709.6	-0.0000134
2707.7	-0.0000130
2705.8	-0.0000151
2703.8	-0.0000142
2701.9	-0.0000112
2700.0	-0.0000112
2698.1	-0.0000124
2696.1	-0.0000148
2694.2	-0.0000197
2692.3	-0.0000208
2690.3	-0.0000159
2688.4	-0.0000133
2686.5	-0.0000165
2684.6	-0.0000181
2682.6	-0.0000112
2680.7	-0.0000022
2678.8	0.0000009
2676.8	-0.0000024
2674.9	-0.0000096
2673.0	-0.0000143
2671.1	-0.0000087
2669.1	0.0000026
2667.2	0.0000033
2665.3	-0.0000060
2663.3	-0.0000110
2661.4	-0.0000096
2659.5	-0.0000073
2657.6	-0.0000077
2655.6	-0.0000087
2653.7	-0.0000040
2651.8	0.0000051
2649.8	0.0000095
2647.9	0.0000019
2646.0	-0.0000109
2644.1	-0.0000141
2642.1	-0.0000023
2640.2	0.0000129
2638.3	0.0000190
2636.3	0.0000148
2634.4	0.0000068
2632.5	0.0000004
2630.6	-0.0000041
2628.6	-0.0000066
2626.7	-0.0000064
2624.8	-0.0000038
2622.8	0.0000011
2620.9	0.0000039
2619.0	0.0000004
2617.1	-0.0000036
2615.1	-0.0000018
2613.2	0.0000001
2611.3	-0.0000039
2609.3	-0.0000052
2607.4	-0.0000007
2605.5	-0.0000002
2603.6	-0.0000059
2601.6	-0.0000113
2599.7	-0.0000150
2597.8	-0.0000148
2595.8	-0.0000069
2593.9	-0.0000001
2592.0	-0.0000013
2590.1	-0.0000019
2588.1	-0.0000008
2586.2	-0.0000014
2584.3	0.0000010
2582.3	0.0000050
2580.4	0.0000065
2578.5	0.0000068
2576.6	0.0000049
2574.6	-0.0000002
2572.7	-0.0000033
2570.8	-0.0000020
2568.8	-0.0000005
2566.9	-0.0000007
2565.0	0.0000006
2563.1	0.0000064
2561.1	0.0000161
2559.2	0.0000210
2557.3	0.0000146
2555.3	0.0000060
2553.4	0.0000032
2551.5	0.0000013
2549.6	0.0000020
2547.6	0.0000106
2545.7	0.0000218
2543.8	0.0000244
2541.8	0.0000167
2539.9	0.0000086
2538.0	0.0000064
2536.1	0.0000097
2534.1	0.0000143
2532.2	0.0000170
2530.3	0.0000176
2528.3	0.0000170
2526.4	0.0000166
2524.5	0.0000210
2522.6	0.0000290
2520.6	0.0000303
2518.7	0.0000247
2516.8	0.0000240
2514.8	0.0000278
2512.9	0.0000268
2511.0	0.0000213
2509.1	0.0000187
2507.1	0.0000226
2505.2	0.0000278
2503.3	0.0000260
2501.3	0.0000228
2499.4	0.0000268
2497.5	0.0000301
2495.6	0.0000261
2493.6	0.0000208
2491.7	0.0000171
2489.8	0.0000124
2487.8	0.0000058
2485.9	-0.0000008
2484.0	-0.0000055
2482.1	-0.0000064
2480.1	-0.0000000
2478.2	0.0000118
2476.3	0.0000174
2474.3	0.0000116
2472.4	0.0000019
2470.5	-0.0000015
2468.6	0.0000019
2466.6	0.0000062
2464.7	0.0000087
2462.8	0.0000101
2460.8	0.0000104
2458.9	0.0000092
2457.0	0.0000076
2455.1	0.0000036
2453.1	-0.0000013
2451.2	0.0000007
2449.3	0.0000076
2447.3	0.0000081
2445.4	0.0000045
2443.5	0.0000067
2441.6	0.0000106
2439.6	0.0000070
2437.7	0.0000003
2435.8	-0.0000043
2433.8	-0.0000075
2431.9	-0.0000060
2430.0	0.0000019
2428.1	0.0000080
2426.1	0.0000082
2424.2	0.0000061
2422.3	0.0000023
2420.3	-0.0000001
2418.4	0.0000015
2416.5	0.0000017
2414.6	-0.0000009
2412.6	-0.0000033
2410.7	-0.0000043
2408.8	-0.0000013
2406.8	0.0000035
2404.9	0.0000014
2403.0	-0.0000052
2401.1	-0.0000072
2399.1	-0.0000043
2397.2	-0.0000017
2395.3	-0.0000032
2393.3	-0.0000075
2391.4	-0.0000095
2389.5	-0.0000069
2387.6	-0.0000025
2385.6	0.0000018
2383.7	0.0000022
2381.8	-0.0000029
2379.8	-0.0000033
2377.9	0.0000041
2376.0	0.0000101
2374.1	0.0000156
2372.1	0.0000231
2370.2	0.0000288
2368.3	0.0000323
2366.3	0.0000357
2364.4	0.0000391
2362.5	0.0000407
2360.6	0.0000386
2358.6	0.0000327
2356.7	0.0000236
2354.8	0.0000130
2352.8	0.0000012
2350.9	-0.0000088
2349.0	-0.0000082
2347.1	0.0000038
2345.1	0.0000151
2343.2	0.0000206
2341.3	0.0000252
2339.3	0.0000302
2337.4	0.0000329
2335.5	0.0000316
2333.6	0.0000298
2331.6	0.0000307
2329.7	0.0000319
2327.8	0.0000305
2325.8	0.0000262
2323.9	0.0000217
2322.0	0.0000199
2320.1	0.0000214
2318.1	0.0000223
2316.2	0.0000177
2314.3	0.0000106
2312.3	0.0000077
2310.4	0.0000098
2308.5	0.0000118
2306.6	0.0000117
2304.6	0.0000097
2302.7	0.0000045
2300.8	-0.0000003
2298.8	-0.0000017
2296.9	-0.0000048
2295.0	-0.0000120
2293.1	-0.0000160
2291.1	-0.0000127
2289.2	-0.0000074
2287.3	-0.0000027
2285.3	0.0000040
2283.4	0.0000136
2281.5	0.0000182
2279.6	0.0000138
2277.6	0.0000068
2275.7	-0.0000021
2273.8	-0.0000135
2271.8	-0.0000171
2269.9	-0.0000091
2268.0	-0.0000022
2266.1	-0.0000042
2264.1	-0.0000128
2262.2	-0.0000204
2260.3	-0.0000199
2258.3	-0.0000145
2256.4	-0.0000096
2254.5	-0.0000062
2252.6	-0.0000034
2250.6	-0.0000012
2248.7	-0.0000012
2246.8	-0.0000052
2244.8	-0.0000111
2242.9	-0.0000135
2241.0	-0.0000134
2239.1	-0.0000159
2237.1	-0.0000208
2235.2	-0.0000248
2233.3	-0.0000274
2231.3	-0.0000278
2229.4	-0.0000258
2227.5	-0.0000242
2225.6	-0.0000217
2223.6	-0.0000163
2221.7	-0.0000106
2219.8	-0.0000092
2217.8	-0.0000120
2215.9	-0.0000132
2214.0	-0.0000103
2212.1	-0.0000053
2210.1	-0.0000009
2208.2	0.0000011
2206.3	-0.0000012
2204.3	-0.0000037
2202.4	-0.0000022
2200.5	-0.0000035
2198.6	-0.0000075
2196.6	-0.0000081
2194.7	-0.0000056
2192.8	-0.0000040
2190.8	-0.0000021
2188.9	0.0000033
2187.0	0.0000063
2185.1	0.0000067
2183.1	0.0000088
2181.2	0.0000133
2179.3	0.0000163
2177.3	0.0000143
2175.4	0.0000067
2173.5	-0.0000031
2171.6	-0.0000026
2169.6	0.0000084
2167.7	0.0000206
2165.8	0.0000261
2163.8	0.0000251
2161.9	0.0000239
2160.0	0.0000254
2158.1	0.0000321
2156.1	0.0000356
2154.2	0.0000357
2152.3	0.0000382
2150.3	0.0000439
2148.4	0.0000510
2146.5	0.0000582
2144.6	0.0000716
2142.6	0.0000851
2140.7	0.0000948
2138.8	0.0001057
2136.8	0.0001194
2134.9	0.0001339
2133.0	0.0001454
2131.1	0.0001590
2129.1	0.0001763
2127.2	0.0002015
2125.3	0.0002333
2123.3	0.0002693
2121.4	0.0003111
2119.5	0.0003590
2117.6	0.0004238
2115.6	0.0005082
2113.7	0.0006227
2111.8	0.0007847
2109.8	0.0010277
2107.9	0.0014179
2106.0	0.0021350
2104.1	0.0037536
2102.1	0.0076159
2100.2	0.0139964
2098.3	0.0186409
2096.3	0.0167367
2094.4	0.0105349
2092.5	0.0052634
2090.6	0.0021726
2088.6	0.0003880
2086.7	-0.0003494
2084.8	-0.0002818
2082.8	0.0000152
2080.9	0.0001854
2079.0	0.0002195
2077.1	0.0001966
2075.1	0.0001745
2073.2	0.0001630
2071.3	0.0001539
2069.3	0.0001451
2067.4	0.0001413
2065.5	0.0001462
2063.6	0.0001490
2061.6	0.0001470
2059.7	0.0001395
2057.8	0.0001323
2055.8	0.0001272
2053.9	0.0001205
2052.0	0.0001100
2050.1	0.0000925
2048.1	0.0000757
2046.2	0.0000646
2044.3	0.0000594
2042.3	0.0000505
2040.4	0.0000306
2038.5	0.0000090
2036.6	-0.0000049
2034.6	-0.0000098
2032.7	-0.0000140
2030.8	-0.0000193
2028.8	-0.0000251
2026.9	-0.0000338
2025.0	-0.0000413
2023.1	-0.0000413
2021.1	-0.0000347
2019.2	-0.0000290
2017.3	-0.0000261
2015.3	-0.0000272
2013.4	-0.0000309
2011.5	-0.0000313
2009.6	-0.0000260
2007.6	-0.0000204
2005.7	-0.0000222
2003.8	-0.0000282
2001.8	-0.0000335
1999.9	-0.0000369
1998.0	-0.0000389
1996.1	-0.0000389
1994.1	-0.0000299
1992.2	-0.0000198
1990.3	-0.0000237
1988.3	-0.0000370
1986.4	-0.0000458
1984.5	-0.0000477
1982.6	-0.0000460
1980.6	-0.0000434
1978.7	-0.0000440
1976.8	-0.0000475
1974.8	-0.0000494
1972.9	-0.0000441
1971.0	-0.0000319
1969.1	-0.0000221
1967.1	-0.0000228
1965.2	-0.0000296
1963.3	-0.0000333
1961.4	-0.0000363
1959.4	-0.0000401
1957.5	-0.0000400
1955.6	-0.0000379
1953.6	-0.0000401
1951.7	-0.0000436
1949.8	-0.0000377
1947.9	-0.0000239
1945.9	-0.0000106
1944.0	-0.0000008
1942.1	-0.0000013
1940.1	-0.0000115
1938.2	-0.0000177
1936.3	-0.0000160
1934.4	-0.0000112
1932.4	-0.0000066
1930.5	-0.0000083
1928.6	-0.0000131
1926.6	-0.0000064
1924.7	0.0000139
1922.8	0.0000339
1920.9	0.0000548
1918.9	0.0000763
1917.0	0.0000746
1915.1	0.0000586
1913.1	0.0000614
1911.2	0.0000785
1909.3	0.0000946
1907.4	0.0001128
1905.4	0.0001422
1903.5	0.0001851
1901.6	0.0002325
1899.6	0.0002784
1897.7	0.0003214
1895.8	0.0003523
1893.9	0.0003655
1891.9	0.0003799
1890.0	0.0004011
1888.1	0.0004079
1886.1	0.0003991
1884.2	0.0003885
1882.3	0.0003755
1880.4	0.0003562
1878.4	0.0003386
1876.5	0.0003389
1874.6	0.0003724
1872.6	0.0004651
1870.7	0.0006189
1868.8	0.0007483
1866.9	0.0007673
1864.9	0.0007029
1863.0	0.0006204
1861.1	0.0005401
1859.1	0.0004684
1857.2	0.0004136
1855.3	0.0003663
1853.4	0.0003124
1851.4	0.0002626
1849.5	0.0002381
1847.6	0.0002631
1845.6	0.0003204
1843.7	0.0003089
1841.8	0.0002036
1839.9	0.0001100
1837.9	0.0000696
1836.0	0.0000451
1834.1	0.0000366
1832.1	0.0000644
1830.2	0.0000946
1828.3	0.0000875
1826.4	0.0000664
1824.4	0.0000419
1822.5	0.0000076
1820.6	-0.0000116
1818.6	-0.0000103
1816.7	-0.0000076
1814.8	-0.0000056
1812.9	0.0000064
1810.9	0.0000173
1809.0	0.0000071
1807.1	-0.0000128
1805.1	-0.0000142
1803.2	0.0000102
1801.3	0.0000352
1799.4	0.0000327
1797.4	0.0000191
1795.5	0.0000459
1793.6	0.0001047
1791.6	0.0001088
1789.7	0.0000442
1787.8	-0.0000001
1785.9	0.0000076
1783.9	0.0000195
1782.0	0.0000156
1780.1	0.0000056
1778.1	0.0000001
1776.2	0.0000479
1774.3	0.0001680
1772.4	0.0002436
1770.4	0.0001913
1768.5	0.0000974
1766.6	0.0000376
1764.6	0.0000286
1762.7	0.0000554
1760.8	0.0000599
1758.9	0.0000473
1756.9	0.0000432
1755.0	0.0000534
1753.1	0.0001133
1751.1	0.0001750
1749.2	0.0001523
1747.3	0.0000853
1745.4	0.0000499
1743.4	0.0000597
1741.5	0.0000944
1739.6	0.0001146
1737.6	0.0001648
1735.7	0.0003038
1733.8	0.0003634
1731.9	0.0002284
1729.9	0.0000731
1728.0	0.0000061
1726.1	-0.0000134
1724.1	-0.0000125
1722.2	0.0000247
1720.3	0.0001631
1718.4	0.0003464
1716.4	0.0003719
1714.5	0.0002217
1712.6	0.0000751
1710.6	0.0000185
1708.7	0.0000357
1706.8	0.0000872
1704.9	0.0001411
1702.9	0.0002615
1701.0	0.0004197
1699.1	0.0004606
1697.1	0.0004149
1695.2	0.0003149
1693.3	0.0001376
1691.4	0.0000207
1689.4	0.0000375
1687.5	0.0001986
1685.6	0.0004219
1683.6	0.0004240
1681.7	0.0001999
1679.8	0.0000413
1677.9	0.0000550
1675.9	0.0001242
1674.0	0.0001299
1672.1	0.0001195
1670.1	0.0001419
1668.2	0.0001137
1666.3	0.0000529
1664.4	0.0000526
1662.4	0.0000630
1660.5	0.0000268
1658.6	0.0000157
1656.6	0.0001862
1654.7	0.0005455
1652.8	0.0007014
1650.9	0.0004717
1648.9	0.0002799
1647.0	0.0002844
1645.1	0.0002257
1643.1	0.0000818
1641.2	0.0000087
1639.3	0.0000642
1637.4	0.0002160
1635.4	0.0002843
1633.5	0.0001591
1631.6	0.0000167
1629.6	-0.0000106
1627.7	0.0000170
1625.8	0.0000554
1623.9	0.0000810
1621.9	0.0000639
1620.0	0.0000924
1618.1	0.0002146
1616.1	0.0002407
1614.2	0.0001030
1612.3	-0.0000033
1610.4	-0.0000136
1608.4	-0.0000109
1606.5	-0.0000214
1604.6	-0.0000287
1602.6	-0.0000327
1600.7	-0.0000390
1598.8	-0.0000413
1596.9	-0.0000345
1594.9	-0.0000278
1593.0	-0.0000285
1591.1	-0.0000298
1589.1	-0.0000292
1587.2	-0.0000316
1585.3	-0.0000351
1583.4	-0.0000359
1581.4	-0.0000217
1579.5	0.0000757
1577.6	0.0002559
1575.6	0.0003035
1573.7	0.0001731
1571.8	0.0001149
1569.9	0.0001464
1567.9	0.0001155
1566.0	0.0000600
1564.1	0.0000900
1562.1	0.0003038
1560.2	0.0006231
1558.3	0.0007038
1556.4	0.0004931
1554.4	0.0002782
1552.5	0.0001564
1550.6	0.0000886
1548.6	0.0000721
1546.7	0.0001206
1544.8	0.0002515
1542.9	0.0004553
1540.9	0.0006280
1539.0	0.0005667
1537.1	0.0003296
1535.1	0.0002024
1533.2	0.0001823
1531.3	0.0001306
1529.4	0.0001004
1527.4	0.0001342
1525.5	0.0001999
1523.6	0.0003149
1521.6	0.0004035
1519.7	0.0003492
1517.8	0.0002307
1515.9	0.0001502
1513.9	0.0001110
1512.0	0.0001281
1510.1	0.0002582
1508.1	0.0004901
1506.2	0.0005731
1504.3	0.0003645
1502.4	0.0001367
1500.4	0.0001024
1498.5	0.0001769
1496.6	0.0002070
1494.6	0.0001508
1492.7	0.0001118
1490.8	0.0001391
1488.9	0.0001451
1486.9	0.0000908
1485.0	0.0000306
1483.1	0.0000051
1481.1	0.0000059
1479.2	0.0000271
1477.3	0.0000836
1475.4	0.0001737
1473.4	0.0002388
1471.5	0.0001936
1469.6	0.0000847
1467.6	0.0000548
1465.7	0.0000956
1463.8	0.0000937
1461.9	0.0000818
1459.9	0.0002027
1458.0	0.0003894
1456.1	0.0003812
1454.1	0.0001883
1452.2	0.0000537
1450.3	0.0000377
1448.4	0.0000480
1446.4	0.0000269
1444.5	-0.0000054
1442.6	-0.0000083
1440.6	0.0000410
1438.7	0.0001505
1436.8	0.0002189
1434.9	0.0001524
1432.9	0.0000605
1431.0	0.0000414
1429.1	0.0000431
1427.1	0.0000338
1425.2	0.0000315
1423.3	0.0000585
1421.4	0.0001436
1419.4	0.0002117
1417.5	0.0001586
1415.6	0.0000581
1413.6	0.0000129
1411.7	0.0000059
1409.8	0.0000055
1407.9	0.0000180
1405.9	0.0000416
1404.0	0.0000499
1402.1	0.0000570
1400.1	0.0000874
1398.2	0.0001176
1396.3	0.0001366
1394.4	0.0001284
1392.4	0.0000779
1390.5	0.0000436
1388.6	0.0000547
1386.6	0.0000525
1384.7	0.0000220
1382.8	0.0000073
1380.9	0.0000146
1378.9	0.0000230
1377.0	0.0000347
1375.1	0.0000493
1373.1	0.0000455
1371.2	0.0000278
1369.3	0.0000179
1367.4	0.0000138
1365.4	0.0000199
1363.5	0.0000424
1361.6	0.0000547
1359.6	0.0000404
1357.7	0.0000223
1355.8	0.0000159
1353.9	0.0000093
1351.9	0.0000027
1350.0	0.0000043
1348.1	0.0000021
1346.1	-0.0000071
1344.2	-0.0000028
1342.3	0.0000251
1340.4	0.0000521
1338.4	0.0000533
1336.5	0.0000387
1334.6	0.0000270
1332.6	0.0000193
1330.7	0.0000132
1328.8	0.0000084
1326.9	0.0000054
1324.9	0.0000075
1323.0	0.0000113
1321.1	0.0000114
1319.1	0.0000100
1317.2	0.0000091
1315.3	0.0000080
1313.4	0.0000065
1311.4	0.0000058
1309.5	0.0000050
1307.6	-0.0000019
1305.6	-0.0000105
1303.7	-0.0000118
1301.8	-0.0000078
1299.9	-0.0000050
1297.9	-0.0000026
1296.0	0.0000006
1294.1	0.0000034
1292.1	0.0000068
1290.2	0.0000107
1288.3	0.0000103
1286.4	0.0000042
1284.4	0.0000014
1282.5	0.0000067
1280.6	0.0000110
1278.6	0.0000102
1276.7	0.0000063
1274.8	0.0000026
1272.9	0.0000038
1270.9	0.0000064
1269.0	0.0000037
1267.1	0.0000014
1265.1	0.0000048
1263.2	0.0000083
1261.3	0.0000102
1259.4	0.0000140
1257.4	0.0000175
1255.5	0.0000169
1253.6	0.0000140
1251.6	0.0000150
1249.7	0.0000186
1247.8	0.0000158
1245.9	0.0000092
1243.9	0.0000086
1242.0	0.0000100
1240.1	0.0000069
1238.1	0.0000048
1236.2	0.0000029
1234.3	-0.0000040
1232.4	-0.0000084
1230.4	-0.0000052
1228.5	0.0000023
1226.6	0.0000121
1224.6	0.0000185
1222.7	0.0000167
1220.8	0.0000135
1218.9	0.0000105
1216.9	0.0000028
1215.0	-0.0000062
1213.1	-0.0000101
1211.1	-0.0000051
1209.2	0.0000035
1207.3	0.0000066
1205.4	0.0000028
1203.4	-0.0000028
1201.5	-0.0000014
1199.6	0.0000097
1197.6	0.0000185
1195.7	0.0000161
1193.8	0.0000076
1191.9	0.0000004
1189.9	-0.0000029
1188.0	-0.0000009
1186.1	0.0000020
1184.1	-0.0000022
1182.2	-0.0000076
1180.3	0.0000036
1178.4	0.0000217
1176.4	0.0000221
1174.5	0.0000131
1172.6	0.0000091
1170.6	0.0000034
1168.7	-0.0000116
1166.8	-0.0000287
1164.9	-0.0000348
1162.9	-0.0000281
1161.0	-0.0000162
1159.1	-0.0000032
1157.1	0.0000106
1155.2	0.0000149
1153.3	0.0000021
1151.4	-0.0000124
1149.4	-0.0000159
1147.5	-0.0000174
1145.6	-0.0000219
1143.6	-0.0000230
1141.7	-0.0000163
1139.8	-0.0000093
1137.9	-0.0000050
1135.9	0.0000012
1134.0	0.0000037
1132.1	-0.0000034
1130.1	-0.0000124
1128.2	-0.0000181
1126.3	-0.0000233
1124.4	-0.0000265
1122.4	-0.0000231
1120.5	-0.0000137
1118.6	-0.0000050
1116.6	-0.0000069
1114.7	-0.0000149
1112.8	-0.0000156
1110.9	-0.0000134
1108.9	-0.0000150
1107.0	-0.0000158
1105.1	-0.0000159
1103.1	-0.0000214
1101.2	-0.0000326
1099.3	-0.0000408
1097.4	-0.0000428
1095.4	-0.0000455
1093.5	-0.0000444
1091.6	-0.0000347
1089.6	-0.0000293
1087.7	-0.0000322
1085.8	-0.0000323
1083.9	-0.0000306
1081.9	-0.0000366
1080.0	-0.0000479
1078.1	-0.0000537
1076.1	-0.0000516
1074.2	-0.0000441
1072.3	-0.0000376
1070.4	-0.0000398
1068.4	-0.0000486
1066.5	-0.0000530
1064.6	-0.0000518
1062.6	-0.0000540
1060.7	-0.0000619
1058.8	-0.0000705
1056.9	-0.0000752
1054.9	-0.0000657
1053.0	-0.0000449
1051.1	-0.0000381
1049.1	-0.0000522
1047.2	-0.0000670
1045.3	-0.0000698
1043.4	-0.0000629
1041.4	-0.0000542
1039.5	-0.0000528
1037.6	-0.0000604
1035.6	-0.0000712
1033.7	-0.0000792
1031.8	-0.0000801
1029.9	-0.0000782
1027.9	-0.0000816
1026.0	-0.0000831
1024.1	-0.0000768
1022.1	-0.0000691
1020.2	-0.0000628
1018.3	-0.0000583
1016.4	-0.0000564
1014.4	-0.0000577
1012.5	-0.0000624
1010.6	-0.0000666
1008.6	-0.0000661
1006.7	-0.0000657
1004.8	-0.0000692
1002.9	-0.0000732
1000.9	-0.0000782
999.0	-0.0000829
997.1	-0.0000842
995.1	-0.0000804
993.2	-0.0000742
991.3	-0.0000761
989.4	-0.0000810
987.4	-0.0000791
985.5	-0.0000803
983.6	-0.0000848
981.6	-0.0000838
979.7	-0.0000783
977.8	-0.0000709
975.9	-0.0000693
973.9	-0.0000798
972.0	-0.0000935
970.1	-0.0000993
968.1	-0.0000989
966.2	-0.0000995
964.3	-0.0001033
962.4	-0.0001062
960.4	-0.0001048
958.5	-0.0001009
956.6	-0.0000970
954.6	-0.0000973
952.7	-0.0001061
950.8	-0.0001136
948.9	-0.0001148
946.9	-0.0001195
945.0	-0.0001246
943.1	-0.0001227
941.1	-0.0001221
939.2	-0.0001234
937.3	-0.0001210
935.4	-0.0001216
933.4	-0.0001245
931.5	-0.0001246
929.6	-0.0001290
927.6	-0.0001398
925.7	-0.0001511
923.8	-0.0001567
921.9	-0.0001513
919.9	-0.0001456
918.0	-0.0001506
916.1	-0.0001572
914.1	-0.0001618
912.2	-0.0001634
910.3	-0.0001549
908.4	-0.0001481
906.4	-0.0001567
904.5	-0.0001696
902.6	-0.0001724
900.6	-0.0001606
898.7	-0.0001446
896.8	-0.0001434
894.9	-0.0001583
892.9	-0.0001730
891.0	-0.0001791
889.1	-0.0001762
887.1	-0.0001698
885.2	-0.0001664
883.3	-0.0001535
881.4	-0.0001340
879.4	-0.0001293
877.5	-0.0001342
875.6	-0.0001368
873.6	-0.0001403
871.7	-0.0001460
869.8	-0.0001511
867.9	-0.0001549
865.9	-0.0001584
864.0	-0.0001513
862.1	-0.0001321
860.1	-0.0001260
858.2	-0.0001420
856.3	-0.0001535
854.4	-0.0001402
852.4	-0.0001166
850.5	-0.0001139
848.6	-0.0001319
846.6	-0.0001361
844.7	-0.0001109
842.8	-0.0000889
840.9	-0.0001078
838.9	-0.0001522
837.0	-0.0001583
835.1	-0.0001152
833.1	-0.0000886
831.2	-0.0000999
829.3	-0.0001172
827.4	-0.0001440
825.4	-0.0001646
823.5	-0.0001406
821.6	-0.0001032
819.6	-0.0001011
817.7	-0.0001310
815.8	-0.0001683
813.9	-0.0001833
811.9	-0.0001604
810.0	-0.0001106
808.1	-0.0000575
806.1	-0.0000366
804.2	-0.0000565
802.3	-0.0000882
800.4	-0.0001072
798.4	-0.0001083
796.5	-0.0001089
794.6	-0.0001081
792.6	-0.0000901
790.7	-0.0000731
788.8	-0.0000610
786.9	-0.0000404
784.9	-0.0000275
783.0	-0.0000327
781.1	-0.0000534
779.1	-0.0000757
777.2	-0.0000779
775.3	-0.0000830
773.4	-0.0001076
771.4	-0.0001136
769.5	-0.0000823
767.6	-0.0000478
765.6	-0.0000326
763.7	-0.0000094
761.8	0.0000148
759.9	-0.0000085
757.9	-0.0000582
756.0	-0.0000771
754.1	-0.0000729
752.1	-0.0000792
750.2	-0.0000871
748.3	-0.0000895
746.4	-0.0000950
744.4	-0.0001039
742.5	-0.0001557
740.6	-0.0002705
738.6	-0.0003594
736.7	-0.0003697
734.8	-0.0003659
732.9	-0.0003893
730.9	-0.0004144
729.0	-0.0004147
727.1	-0.0003875
725.1	-0.0003609
723.2	-0.0004005
721.3	-0.0005204
719.4	-0.0006384
717.4	-0.0007189
715.5	-0.0007496
713.6	-0.0007069
711.6	-0.0006619
709.7	-0.0007167
707.8	-0.0009132
705.9	-0.0011222
703.9	-0.0011400
702.0	-0.0009786
700.1	-0.0008347
698.1	-0.0008375
696.2	-0.0009450
694.3	-0.0010010
692.4	-0.0009087
690.4	-0.0007616
688.5	-0.0007139
686.6	-0.0007967
684.6	-0.0008802
682.7	-0.0008933
680.8	-0.0009629
678.9	-0.0010816
676.9	-0.0011319
675.0	-0.0010946
673.1	-0.0009762
671.1	-0.0008486
669.2	-0.0008005
667.3	-0.0008156
665.4	-0.0008558
663.4	-0.0009514
661.5	-0.0010817
659.6	-0.0012968
657.6	-0.0016714
655.7	-0.0017622
653.8	-0.0012710
651.9	-0.0007836
649.9	-0.0007188
648.0	-0.0008507
646.1	-0.0009589
644.1	-0.0010047
642.2	-0.0010178
640.3	-0.0010049
638.4	-0.0009346
636.4	-0.0008192
634.5	-0.0007605
632.6	-0.0008495
630.6	-0.0009935
628.7	-0.0010592
626.8	-0.0010866
624.9	-0.0011125
622.9	-0.0010966
621.0	-0.0010793
619.1	-0.0010733
617.1	-0.0010214
615.2	-0.0009583
613.3	-0.0009200
611.4	-0.0008948
609.4	-0.0008485
607.5	-0.0007376
605.6	-0.0007004
603.6	-0.0008772
601.7	-0.0010465
599.8	-0.0010285
