3997.9	-0.0000830
3996.0	-0.0000885
3994.1	-0.0000928
3992.1	-0.0000871
3990.2	-0.0000759
3988.3	-0.0000671
3986.3	-0.0000649
3984.4	-0.0000719
3982.5	-0.0000814
3980.6	-0.0000878
3978.6	-0.0000875
3976.7	-0.0000735
3974.8	-0.0000568
3972.8	-0.0000561
3970.9	-0.0000592
3969.0	-0.0000473
3967.1	-0.0000348
3965.1	-0.0000361
3963.2	-0.0000459
3961.3	-0.0000511
3959.3	-0.0000479
3957.4	-0.0000480
3955.5	-0.0000524
3953.6	-0.0000466
3951.6	-0.0000267
3949.7	-0.0000069
3947.8	-0.0000006
3945.8	-0.0000024
3943.9	-0.0000002
3942.0	0.0000023
3940.1	-0.0000053
3938.1	-0.0000147
3936.2	-0.0000065
3934.3	0.0000178
3932.3	0.0000313
3930.4	0.0000224
3928.5	0.0000034
3926.6	-0.0000080
3924.6	-0.0000084
3922.7	-0.0000007
3920.8	0.0000140
3918.8	0.0000222
3916.9	0.0000100
3915.0	-0.0000098
3913.1	-0.0000130
3911.1	-0.0000087
3909.2	-0.0000104
3907.3	-0.0000024
3905.3	0.0000137
3903.4	0.0000163
3901.5	0.0000112
3899.6	0.0000085
3897.6	0.0000022
3895.7	-0.0000043
3893.8	-0.0000036
3891.8	0.0000009
3889.9	0.0000107
3888.0	0.0000276
3886.1	0.0000358
3884.1	0.0000319
3882.2	0.0000362
3880.3	0.0000385
3878.3	0.0000202
3876.4	0.0000014
3874.5	0.0000008
3872.6	0.0000240
3870.6	0.0000585
3868.7	0.0000781
3866.8	0.0000925
3864.8	0.0001025
3862.9	0.0000800
3861.0	0.0000370
3859.1	0.0000227
3857.1	0.0000925
3855.2	0.0002361
3853.3	0.0003111
3851.3	0.0002232
3849.4	0.0000824
3847.5	0.0000120
3845.6	0.0000015
3843.6	0.0000063
3841.7	0.0000205
3839.8	0.0000431
3837.8	0.0000653
3835.9	0.0000774
3834.0	0.0000719
3832.1	0.0000510
3830.1	0.0000270
3828.2	0.0000117
3826.3	0.0000051
3824.3	0.0000023
3822.4	0.0000109
3820.5	0.0000236
3818.6	0.0000210
3816.6	0.0000090
3814.7	-0.0000007
3812.8	-0.0000032
3810.8	0.0000117
3808.9	0.0000484
3807.0	0.0000792
3805.1	0.0000805
3803.1	0.0000698
3801.2	0.0000559
3799.3	0.0000411
3797.3	0.0000359
3795.4	0.0000234
3793.5	0.0000010
3791.6	-0.0000069
3789.6	-0.0000049
3787.7	-0.0000065
3785.8	-0.0000065
3783.8	-0.0000019
3781.9	0.0000079
3780.0	0.0000168
3778.1	0.0000139
3776.1	0.0000073
3774.2	0.0000055
3772.3	0.0000043
3770.3	0.0000071
3768.4	0.0000186
3766.5	0.0000298
3764.6	0.0000302
3762.6	0.0000359
3760.7	0.0000594
3758.8	0.0000629
3756.8	0.0000327
3754.9	0.0000136
3753.0	0.0000538
3751.1	0.0001488
3749.1	0.0002135
3747.2	0.0002435
3745.3	0.0002761
3743.3	0.0002269
3741.4	0.0001082
3739.5	0.0000437
3737.6	0.0000489
3735.6	0.0000792
3733.7	0.0000904
3731.8	0.0000648
3729.8	0.0000366
3727.9	0.0000337
3726.0	0.0000377
3724.1	0.0000318
3722.1	0.0000305
3720.2	0.0000319
3718.3	0.0000237
3716.3	0.0000302
3714.4	0.0000856
3712.5	0.0001374
3710.6	0.0001022
3708.6	0.0000267
3706.7	-0.0000080
3704.8	0.0000053
3702.8	0.0000357
3700.9	0.0000428
3699.0	0.0000239
3697.1	0.0000057
3695.1	0.0000057
3693.2	0.0000359
3691.3	0.0000857
3689.3	0.0001081
3687.4	0.0000752
3685.5	0.0000247
3683.6	-0.0000010
3681.6	-0.0000050
3679.7	0.0000100
3677.8	0.0000692
3675.8	0.0001425
3673.9	0.0001629
3672.0	0.0001413
3670.1	0.0000968
3668.1	0.0000334
3666.2	-0.0000067
3664.3	-0.0000155
3662.3	-0.0000191
3660.4	-0.0000079
3658.5	0.0000411
3656.6	0.0000831
3654.6	0.0000775
3652.7	0.0000845
3650.8	0.0001250
3648.8	0.0001304
3646.9	0.0000858
3645.0	0.0000382
3643.1	0.0000097
3641.1	-0.0000087
3639.2	-0.0000194
3637.3	-0.0000100
3635.3	0.0000140
3633.4	0.0000423
3631.5	0.0000871
3629.6	0.0001124
3627.6	0.0000719
3625.7	0.0000174
3623.8	0.0000004
3621.8	0.0000044
3619.9	0.0000099
3618.0	0.0000131
3616.1	0.0000214
3614.1	0.0000418
3612.2	0.0000676
3610.3	0.0000804
3608.3	0.0000609
3606.4	0.0000200
3604.5	-0.0000074
3602.6	-0.0000133
3600.6	-0.0000110
3598.7	-0.0000069
3596.8	-0.0000039
3594.8	-0.0000042
3592.9	-0.0000168
3591.0	-0.0000400
3589.1	-0.0000415
3587.1	-0.0000170
3585.2	-0.0000005
3583.3	-0.0000037
3581.3	-0.0000141
3579.4	-0.0000226
3577.5	-0.0000259
3575.6	-0.0000251
3573.6	-0.0000200
3571.7	-0.0000043
3569.8	0.0000253
3567.8	0.0000493
3565.9	0.0000393
3564.0	0.0000041
3562.1	-0.0000233
3560.1	-0.0000270
3558.2	-0.0000156
3556.3	-0.0000121
3554.3	-0.0000185
3552.4	-0.0000238
3550.5	-0.0000266
3548.6	-0.0000163
3546.6	-0.0000013
3544.7	-0.0000087
3542.8	-0.0000253
3540.8	-0.0000201
3538.9	-0.0000011
3537.0	0.0000081
3535.1	0.0000037
3533.1	-0.0000057
3531.2	-0.0000108
3529.3	-0.0000098
3527.3	-0.0000108
3525.4	-0.0000133
3523.5	-0.0000137
3521.6	-0.0000152
3519.6	-0.0000205
3517.7	-0.0000273
3515.8	-0.0000295
3513.8	-0.0000255
3511.9	-0.0000205
3510.0	-0.0000150
3508.1	-0.0000084
3506.1	-0.0000059
3504.2	-0.0000065
3502.3	-0.0000067
3500.3	-0.0000110
3498.4	-0.0000168
3496.5	-0.0000146
3494.6	-0.0000037
3492.6	0.0000053
3490.7	0.0000011
3488.8	-0.0000101
3486.8	-0.0000154
3484.9	-0.0000171
3483.0	-0.0000142
3481.1	-0.0000018
3479.1	0.0000091
3477.2	0.0000112
3475.3	0.0000118
3473.3	0.0000135
3471.4	0.0000088
3469.5	-0.0000002
3467.6	-0.0000002
3465.6	0.0000095
3463.7	0.0000152
3461.8	0.0000119
3459.8	0.0000074
3457.9	0.0000064
3456.0	0.0000042
3454.1	-0.0000049
3452.1	-0.0000122
3450.2	-0.0000072
3448.3	0.0000071
3446.3	0.0000213
3444.4	0.0000300
3442.5	0.0000319
3440.6	0.0000281
3438.6	0.0000230
3436.7	0.0000205
3434.8	0.0000211
3432.8	0.0000265
3430.9	0.0000313
3429.0	0.0000259
3427.1	0.0000157
3425.1	0.0000118
3423.2	0.0000163
3421.3	0.0000256
3419.3	0.0000304
3417.4	0.0000273
3415.5	0.0000210
3413.6	0.0000217
3411.6	0.0000297
3409.7	0.0000341
3407.8	0.0000338
3405.8	0.0000352
3403.9	0.0000337
3402.0	0.0000244
3400.1	0.0000169
3398.1	0.0000162
3396.2	0.0000140
3394.3	0.0000087
3392.3	0.0000065
3390.4	0.0000074
3388.5	0.0000030
3386.6	-0.0000045
3384.6	-0.0000033
3382.7	0.0000051
3380.8	0.0000095
3378.8	0.0000094
3376.9	0.0000102
3375.0	0.0000117
3373.1	0.0000159
3371.1	0.0000196
3369.2	0.0000089
3367.3	-0.0000131
3365.3	-0.0000261
3363.4	-0.0000243
3361.5	-0.0000147
3359.6	-0.0000016
3357.6	0.0000095
3355.7	0.0000124
3353.8	0.0000050
3351.8	-0.0000109
3349.9	-0.0000222
3348.0	-0.0000193
3346.1	-0.0000140
3344.1	-0.0000125
3342.2	-0.0000113
3340.3	-0.0000203
3338.3	-0.0000389
3336.4	-0.0000469
3334.5	-0.0000404
3332.6	-0.0000320
3330.6	-0.0000265
3328.7	-0.0000216
3326.8	-0.0000167
3324.8	-0.0000165
3322.9	-0.0000260
3321.0	-0.0000392
3319.1	-0.0000445
3317.1	-0.0000415
3315.2	-0.0000403
3313.3	-0.0000447
3311.3	-0.0000459
3309.4	-0.0000413
3307.5	-0.0000390
3305.6	-0.0000394
3303.6	-0.0000396
3301.7	-0.0000387
3299.8	-0.0000427
3297.8	-0.0000594
3295.9	-0.0000783
3294.0	-0.0000768
3292.1	-0.0000557
3290.1	-0.0000394
3288.2	-0.0000382
3286.3	-0.0000383
3284.3	-0.0000367
3282.4	-0.0000441
3280.5	-0.0000573
3278.6	-0.0000625
3276.6	-0.0000578
3274.7	-0.0000502
3272.8	-0.0000459
3270.8	-0.0000426
3268.9	-0.0000380
3267.0	-0.0000332
3265.1	-0.0000291
3263.1	-0.0000304
3261.2	-0.0000367
3259.3	-0.0000406
3257.3	-0.0000388
3255.4	-0.0000337
3253.5	-0.0000308
3251.6	-0.0000338
3249.6	-0.0000410
3247.7	-0.0000432
3245.8	-0.0000376
3243.8	-0.0000347
3241.9	-0.0000324
3240.0	-0.0000232
3238.1	-0.0000162
3236.1	-0.0000156
3234.2	-0.0000175
3232.3	-0.0000201
3230.3	-0.0000204
3228.4	-0.0000196
3226.5	-0.0000216
3224.6	-0.0000217
3222.6	-0.0000209
3220.7	-0.0000240
3218.8	-0.0000214
3216.8	-0.0000140
3214.9	-0.0000177
3213.0	-0.0000292
3211.1	-0.0000338
3209.1	-0.0000310
3207.2	-0.0000278
3205.3	-0.0000256
3203.3	-0.0000238
3201.4	-0.0000305
3199.5	-0.0000416
3197.6	-0.0000391
3195.6	-0.0000294
3193.7	-0.0000311
3191.8	-0.0000392
3189.8	-0.0000427
3187.9	-0.0000443
3186.0	-0.0000458
3184.1	-0.0000460
3182.1	-0.0000451
3180.2	-0.0000417
3178.3	-0.0000391
3176.3	-0.0000413
3174.4	-0.0000460
3172.5	-0.0000466
3170.6	-0.0000412
3168.6	-0.0000401
3166.7	-0.0000490
3164.8	-0.0000593
3162.8	-0.0000650
3160.9	-0.0000628
3159.0	-0.0000553
3157.1	-0.0000500
3155.1	-0.0000516
3153.2	-0.0000571
3151.3	-0.0000573
3149.3	-0.0000538
3147.4	-0.0000554
3145.5	-0.0000591
3143.6	-0.0000590
3141.6	-0.0000568
3139.7	-0.0000540
3137.8	-0.0000546
3135.8	-0.0000622
3133.9	-0.0000722
3132.0	-0.0000801
3130.1	-0.0000839
3128.1	-0.0000847
3126.2	-0.0000866
3124.3	-0.0000874
3122.3	-0.0000802
3120.4	-0.0000697
3118.5	-0.0000685
3116.6	-0.0000786
3114.6	-0.0000880
3112.7	-0.0000886
3110.8	-0.0000897
3108.8	-0.0000984
3106.9	-0.0001064
3105.0	-0.0001108
3103.1	-0.0001157
3101.1	-0.0001177
3099.2	-0.0001177
3097.3	-0.0001247
3095.3	-0.0001340
3093.4	-0.0001356
3091.5	-0.0001312
3089.6	-0.0001242
3087.6	-0.0001195
3085.7	-0.0001215
3083.8	-0.0001248
3081.8	-0.0001246
3079.9	-0.0001275
3078.0	-0.0001386
3076.1	-0.0001463
3074.1	-0.0001401
3072.2	-0.0001282
3070.3	-0.0001203
3068.3	-0.0001192
3066.4	-0.0001225
3064.5	-0.0001214
3062.6	-0.0001126
3060.6	-0.0001043
3058.7	-0.0001046
3056.8	-0.0001106
3054.8	-0.0001140
3052.9	-0.0001134
3051.0	-0.0001104
3049.1	-0.0001055
3047.1	-0.0001014
3045.2	-0.0001003
3043.3	-0.0001018
3041.3	-0.0001037
3039.4	-0.0001022
3037.5	-0.0000984
3035.6	-0.0000993
3033.6	-0.0001015
3031.7	-0.0000962
3029.8	-0.0000894
3027.8	-0.0000888
3025.9	-0.0000891
3024.0	-0.0000841
3022.1	-0.0000821
3020.1	-0.0000959
3018.2	-0.0001169
3016.3	-0.0001218
3014.3	-0.0001045
3012.4	-0.0000786
3010.5	-0.0000600
3008.6	-0.0000552
3006.6	-0.0000597
3004.7	-0.0000653
3002.8	-0.0000667
3000.8	-0.0000649
2998.9	-0.0000601
2997.0	-0.0000522
2995.1	-0.0000455
2993.1	-0.0000432
2991.2	-0.0000455
2989.3	-0.0000506
2987.3	-0.0000529
2985.4	-0.0000494
2983.5	-0.0000443
2981.6	-0.0000394
2979.6	-0.0000336
2977.7	-0.0000287
2975.8	-0.0000243
2973.8	-0.0000246
2971.9	-0.0000304
2970.0	-0.0000327
2968.1	-0.0000306
2966.1	-0.0000305
2964.2	-0.0000315
2962.3	-0.0000320
2960.3	-0.0000328
2958.4	-0.0000279
2956.5	-0.0000168
2954.6	-0.0000114
2952.6	-0.0000144
2950.7	-0.0000189
2948.8	-0.0000240
2946.8	-0.0000288
2944.9	-0.0000281
2943.0	-0.0000233
2941.1	-0.0000223
2939.1	-0.0000268
2937.2	-0.0000338
2935.3	-0.0000409
2933.3	-0.0000413
2931.4	-0.0000325
2929.5	-0.0000199
2927.6	-0.0000072
2925.6	-0.0000028
2923.7	-0.0000131
2921.8	-0.0000251
2919.8	-0.0000273
2917.9	-0.0000211
2916.0	-0.0000154
2914.1	-0.0000197
2912.1	-0.0000287
2910.2	-0.0000302
2908.3	-0.0000257
2906.3	-0.0000253
2904.4	-0.0000296
2902.5	-0.0000291
2900.6	-0.0000266
2898.6	-0.0000309
2896.7	-0.0000354
2894.8	-0.0000311
2892.8	-0.0000236
2890.9	-0.0000211
2889.0	-0.0000227
2887.1	-0.0000254
2885.1	-0.0000276
2883.2	-0.0000247
2881.3	-0.0000168
2879.3	-0.0000110
2877.4	-0.0000096
2875.5	-0.0000089
2873.6	-0.0000083
2871.6	-0.0000073
2869.7	-0.0000074
2867.8	-0.0000146
2865.8	-0.0000246
2863.9	-0.0000270
2862.0	-0.0000222
2860.1	-0.0000172
2858.1	-0.0000155
2856.2	-0.0000160
2854.3	-0.0000142
2852.3	-0.0000077
2850.4	-0.0000047
2848.5	-0.0000101
2846.6	-0.0000150
2844.6	-0.0000150
2842.7	-0.0000143
2840.8	-0.0000144
2838.8	-0.0000145
2836.9	-0.0000170
2835.0	-0.0000242
2833.1	-0.0000301
2831.1	-0.0000291
2829.2	-0.0000258
2827.3	-0.0000236
2825.3	-0.0000221
2823.4	-0.0000221
2821.5	-0.0000212
2819.6	-0.0000162
2817.6	-0.0000089
2815.7	-0.0000027
2813.8	-0.0000042
2811.8	-0.0000127
2809.9	-0.0000168
2808.0	-0.0000146
2806.1	-0.0000148
2804.1	-0.0000181
2802.2	-0.0000185
2800.3	-0.0000153
2798.3	-0.0000116
2796.4	-0.0000095
2794.5	-0.0000098
2792.6	-0.0000100
2790.6	-0.0000058
2788.7	-0.0000009
2786.8	-0.0000016
2784.8	-0.0000041
2782.9	-0.0000022
2781.0	0.0000009
2779.1	-0.0000022
2777.1	-0.0000080
2775.2	-0.0000091
2773.3	-0.0000050
2771.3	-0.0000001
2769.4	0.0000038
2767.5	0.0000052
2765.6	0.0000043
2763.6	0.0000041
2761.7	0.0000038
2759.8	0.0000040
2757.8	0.0000015
2755.9	-0.0000088
2754.0	-0.0000161
2752.1	-0.0000091
2750.1	0.0000022
2748.2	0.0000069
2746.3	0.0000077
2744.3	0.0000079
2742.4	0.0000059
2740.5	0.0000003
2738.6	-0.0000061
2736.6	-0.0000075
2734.7	-0.0000032
2732.8	-0.0000002
2730.8	0.0000005
2728.9	0.0000050
2727.0	0.0000108
2725.1	0.0000109
2723.1	0.0000072
2721.2	0.0000057
2719.3	0.0000070
2717.3	0.0000084
2715.4	0.0000070
2713.5	0.0000047
2711.6	0.0000074
2709.6	0.0000120
2707.7	0.0000092
2705.8	0.0000018
2703.8	-0.0000017
2701.9	0.0000016
2700.0	0.0000087
2698.1	0.0000136
2696.1	0.0000116
2694.2	0.0000043
2692.3	0.0000015
2690.3	0.0000055
2688.4	0.0000046
2686.5	-0.0000029
2684.6	-0.0000014
2682.6	0.0000132
2680.7	0.0000255
2678.8	0.0000249
2676.8	0.0000151
2674.9	0.0000054
2673.0	0.0000011
2671.1	0.0000032
2669.1	0.0000080
2667.2	0.0000102
2665.3	0.0000140
2663.3	0.0000212
2661.4	0.0000235
2659.5	0.0000189
2657.6	0.0000114
2655.6	0.0000041
2653.7	0.0000037
2651.8	0.0000131
2649.8	0.0000232
2647.9	0.0000243
2646.0	0.0000196
2644.1	0.0000172
2642.1	0.0000232
2640.2	0.0000334
2638.3	0.0000358
2636.3	0.0000290
2634.4	0.0000208
2632.5	0.0000146
2630.6	0.0000097
2628.6	0.0000062
2626.7	0.0000068
2624.8	0.0000124
2622.8	0.0000222
2620.9	0.0000304
2619.0	0.0000293
2617.1	0.0000221
2615.1	0.0000195
2613.2	0.0000202
2611.3	0.0000188
2609.3	0.0000217
2607.4	0.0000281
2605.5	0.0000270
2603.6	0.0000207
2601.6	0.0000164
2599.7	0.0000123
2597.8	0.0000112
2595.8	0.0000175
2593.9	0.0000250
2592.0	0.0000296
2590.1	0.0000351
2588.1	0.0000368
2586.2	0.0000327
2584.3	0.0000298
2582.3	0.0000299
2580.4	0.0000328
2578.5	0.0000358
2576.6	0.0000339
2574.6	0.0000312
2572.7	0.0000309
2570.8	0.0000312
2568.8	0.0000324
2566.9	0.0000318
2565.0	0.0000289
2563.1	0.0000314
2561.1	0.0000434
2559.2	0.0000551
2557.3	0.0000530
2555.3	0.0000427
2553.4	0.0000374
2551.5	0.0000362
2549.6	0.0000360
2547.6	0.0000397
2545.7	0.0000480
2543.8	0.0000524
2541.8	0.0000475
2539.9	0.0000411
2538.0	0.0000381
2536.1	0.0000401
2534.1	0.0000494
2532.2	0.0000594
2530.3	0.0000591
2528.3	0.0000500
2526.4	0.0000466
2524.5	0.0000515
2522.6	0.0000542
2520.6	0.0000526
2518.7	0.0000514
2516.8	0.0000536
2514.8	0.0000562
2512.9	0.0000540
2511.0	0.0000474
2509.1	0.0000419
2507.1	0.0000428
2505.2	0.0000470
2503.3	0.0000460
2501.3	0.0000423
2499.4	0.0000416
2497.5	0.0000404
2495.6	0.0000402
2493.6	0.0000443
2491.7	0.0000484
2489.8	0.0000492
2487.8	0.0000465
2485.9	0.0000434
2484.0	0.0000452
2482.1	0.0000500
2480.1	0.0000526
2478.2	0.0000538
2476.3	0.0000548
2474.3	0.0000534
2472.4	0.0000455
2470.5	0.0000333
2468.6	0.0000268
2466.6	0.0000326
2464.7	0.0000427
2462.8	0.0000477
2460.8	0.0000480
2458.9	0.0000470
2457.0	0.0000454
2455.1	0.0000414
2453.1	0.0000382
2451.2	0.0000395
2449.3	0.0000418
2447.3	0.0000405
2445.4	0.0000386
2443.5	0.0000425
2441.6	0.0000499
2439.6	0.0000527
2437.7	0.0000504
2435.8	0.0000449
2433.8	0.0000389
2431.9	0.0000369
2430.0	0.0000417
2428.1	0.0000489
2426.1	0.0000527
2424.2	0.0000534
2422.3	0.0000509
2420.3	0.0000491
2418.4	0.0000512
2416.5	0.0000503
2414.6	0.0000449
2412.6	0.0000421
2410.7	0.0000423
2408.8	0.0000426
2406.8	0.0000424
2404.9	0.0000403
2403.0	0.0000396
2401.1	0.0000428
2399.1	0.0000427
2397.2	0.0000366
2395.3	0.0000321
2393.3	0.0000335
2391.4	0.0000383
2389.5	0.0000436
2387.6	0.0000487
2385.6	0.0000525
2383.7	0.0000537
2381.8	0.0000530
2379.8	0.0000547
2377.9	0.0000585
2376.0	0.0000606
2374.1	0.0000640
2372.1	0.0000704
2370.2	0.0000747
2368.3	0.0000749
2366.3	0.0000760
2364.4	0.0000823
2362.5	0.0000918
2360.6	0.0000963
2358.6	0.0000910
2356.7	0.0000814
2354.8	0.0000714
2352.8	0.0000570
2350.9	0.0000421
2349.0	0.0000400
2347.1	0.0000510
2345.1	0.0000618
2343.2	0.0000673
2341.3	0.0000727
2339.3	0.0000794
2337.4	0.0000873
2335.5	0.0000939
2333.6	0.0000939
2331.6	0.0000912
2329.7	0.0000927
2327.8	0.0000958
2325.8	0.0000907
2323.9	0.0000801
2322.0	0.0000737
2320.1	0.0000728
2318.1	0.0000728
2316.2	0.0000688
2314.3	0.0000634
2312.3	0.0000641
2310.4	0.0000696
2308.5	0.0000729
2306.6	0.0000710
2304.6	0.0000632
2302.7	0.0000532
2300.8	0.0000493
2298.8	0.0000514
2296.9	0.0000508
2295.0	0.0000435
2293.1	0.0000369
2291.1	0.0000366
2289.2	0.0000403
2287.3	0.0000466
2285.3	0.0000547
2283.4	0.0000624
2281.5	0.0000661
2279.6	0.0000657
2277.6	0.0000664
2275.7	0.0000643
2273.8	0.0000579
2271.8	0.0000564
2269.9	0.0000635
2268.0	0.0000702
2266.1	0.0000667
2264.1	0.0000539
2262.2	0.0000455
2260.3	0.0000488
2258.3	0.0000553
2256.4	0.0000592
2254.5	0.0000596
2252.6	0.0000561
2250.6	0.0000518
2248.7	0.0000497
2246.8	0.0000460
2244.8	0.0000401
2242.9	0.0000375
2241.0	0.0000378
2239.1	0.0000368
2237.1	0.0000338
2235.2	0.0000320
2233.3	0.0000325
2231.3	0.0000340
2229.4	0.0000350
2227.5	0.0000353
2225.6	0.0000386
2223.6	0.0000460
2221.7	0.0000527
2219.8	0.0000521
2217.8	0.0000472
2215.9	0.0000460
2214.0	0.0000465
2212.1	0.0000449
2210.1	0.0000448
2208.2	0.0000477
2206.3	0.0000517
2204.3	0.0000556
2202.4	0.0000565
2200.5	0.0000522
2198.6	0.0000496
2196.6	0.0000531
2194.7	0.0000581
2192.8	0.0000578
2190.8	0.0000560
2188.9	0.0000620
2187.0	0.0000687
2185.1	0.0000692
2183.1	0.0000687
2181.2	0.0000708
2179.3	0.0000734
2177.3	0.0000765
2175.4	0.0000793
2173.5	0.0000795
2171.6	0.0000826
2169.6	0.0000860
2167.7	0.0000851
2165.8	0.0000850
2163.8	0.0000866
2161.9	0.0000878
2160.0	0.0000901
2158.1	0.0000955
2156.1	0.0000981
2154.2	0.0000996
2152.3	0.0001046
2150.3	0.0001100
2148.4	0.0001134
2146.5	0.0001139
2144.6	0.0001187
2142.6	0.0001267
2140.7	0.0001331
2138.8	0.0001379
2136.8	0.0001432
2134.9	0.0001520
2133.0	0.0001605
2131.1	0.0001693
2129.1	0.0001789
2127.2	0.0001915
2125.3	0.0002050
2123.3	0.0002166
2121.4	0.0002317
2119.5	0.0002528
2117.6	0.0002822
2115.6	0.0003176
2113.7	0.0003637
2111.8	0.0004232
2109.8	0.0005011
2107.9	0.0006048
2106.0	0.0007399
2104.1	0.0009442
2102.1	0.0013124
2100.2	0.0021041
2098.3	0.0041571
2096.3	0.0086001
2094.4	0.0138425
2092.5	0.0150021
2090.6	0.0106392
2088.6	0.0051237
2086.7	0.0019914
2084.8	0.0010209
2082.8	0.0008675
2080.9	0.0008086
2079.0	0.0006939
2077.1	0.0005558
2075.1	0.0004408
2073.2	0.0003594
2071.3	0.0002973
2069.3	0.0002464
2067.4	0.0002102
2065.5	0.0001930
2063.6	0.0001829
2061.6	0.0001705
2059.7	0.0001491
2057.8	0.0001257
2055.8	0.0001125
2053.9	0.0001126
2052.0	0.0001208
2050.1	0.0001225
2048.1	0.0001130
2046.2	0.0000969
2044.3	0.0000797
2042.3	0.0000591
2040.4	0.0000332
2038.5	0.0000123
2036.6	0.0000023
2034.6	0.0000003
2032.7	0.0000006
2030.8	0.0000046
2028.8	0.0000100
2026.9	0.0000112
2025.0	0.0000156
2023.1	0.0000263
2021.1	0.0000322
2019.2	0.0000277
2017.3	0.0000247
2015.3	0.0000276
2013.4	0.0000285
2011.5	0.0000236
2009.6	0.0000174
2007.6	0.0000148
2005.7	0.0000099
2003.8	0.0000026
2001.8	-0.0000037
1999.9	-0.0000084
1998.0	-0.0000078
1996.1	-0.0000028
1994.1	0.0000028
1992.2	0.0000041
1990.3	0.0000012
1988.3	-0.0000025
1986.4	-0.0000068
1984.5	-0.0000108
1982.6	-0.0000099
1980.6	-0.0000043
1978.7	0.0000005
1976.8	0.0000019
1974.8	-0.0000005
1972.9	-0.0000029
1971.0	0.0000001
1969.1	0.0000069
1967.1	0.0000092
1965.2	0.0000046
1963.3	-0.0000000
1961.4	-0.0000019
1959.4	0.0000005
1957.5	0.0000062
1955.6	0.0000099
1953.6	0.0000116
1951.7	0.0000152
1949.8	0.0000220
1947.9	0.0000265
1945.9	0.0000282
1944.0	0.0000316
1942.1	0.0000326
1940.1	0.0000290
1938.2	0.0000268
1936.3	0.0000277
1934.4	0.0000297
1932.4	0.0000324
1930.5	0.0000322
1928.6	0.0000316
1926.6	0.0000399
1924.7	0.0000561
1922.8	0.0000695
1920.9	0.0000808
1918.9	0.0000939
1917.0	0.0001007
1915.1	0.0001073
1913.1	0.0001317
1911.2	0.0001738
1909.3	0.0002363
1907.4	0.0003388
1905.4	0.0005059
1903.5	0.0007557
1901.6	0.0010872
1899.6	0.0014466
1897.7	0.0017179
1895.8	0.0018136
1893.9	0.0017602
1891.9	0.0016456
1890.0	0.0015204
1888.1	0.0013960
1886.1	0.0012825
1884.2	0.0011853
1882.3	0.0011012
1880.4	0.0010309
1878.4	0.0009748
1876.5	0.0009234
1874.6	0.0008666
1872.6	0.0008127
1870.7	0.0007706
1868.8	0.0007190
1866.9	0.0006386
1864.9	0.0005442
1863.0	0.0004530
1861.1	0.0003674
1859.1	0.0002904
1857.2	0.0002285
1855.3	0.0001843
1853.4	0.0001535
1851.4	0.0001284
1849.5	0.0001053
1847.6	0.0000963
1845.6	0.0001066
1843.7	0.0000971
1841.8	0.0000526
1839.9	0.0000157
1837.9	0.0000046
1836.0	0.0000025
1834.1	0.0000056
1832.1	0.0000199
1830.2	0.0000355
1828.3	0.0000378
1826.4	0.0000306
1824.4	0.0000170
1822.5	0.0000003
1820.6	-0.0000059
1818.6	-0.0000029
1816.7	-0.0000018
1814.8	-0.0000030
1812.9	0.0000005
1810.9	0.0000046
1809.0	-0.0000013
1807.1	-0.0000128
1805.1	-0.0000182
1803.2	-0.0000091
1801.3	0.0000058
1799.4	0.0000087
1797.4	0.0000029
1795.5	0.0000080
1793.6	0.0000239
1791.6	0.0000277
1789.7	0.0000119
1787.8	-0.0000008
1785.9	0.0000026
1783.9	0.0000073
1782.0	0.0000024
1780.1	-0.0000069
1778.1	-0.0000107
1776.2	0.0000153
1774.3	0.0000765
1772.4	0.0001121
1770.4	0.0000818
1768.5	0.0000360
1766.6	0.0000166
1764.6	0.0000178
1762.7	0.0000254
1760.8	0.0000260
1758.9	0.0000242
1756.9	0.0000255
1755.0	0.0000358
1753.1	0.0000658
1751.1	0.0000860
1749.2	0.0000673
1747.3	0.0000383
1745.4	0.0000307
1743.4	0.0000400
1741.5	0.0000534
1739.6	0.0000639
1737.6	0.0000940
1735.7	0.0001546
1733.8	0.0001710
1731.9	0.0001110
1729.9	0.0000533
1728.0	0.0000341
1726.1	0.0000293
1724.1	0.0000268
1722.2	0.0000384
1720.3	0.0000997
1718.4	0.0001899
1716.4	0.0002082
1714.5	0.0001357
1712.6	0.0000634
1710.6	0.0000410
1708.7	0.0000529
1706.8	0.0000751
1704.9	0.0000937
1702.9	0.0001266
1701.0	0.0001695
1699.1	0.0001760
1697.1	0.0001547
1695.2	0.0001231
1693.3	0.0000748
1691.4	0.0000423
1689.4	0.0000503
1687.5	0.0001235
1685.6	0.0002289
1683.6	0.0002276
1681.7	0.0001189
1679.8	0.0000445
1677.9	0.0000518
1675.9	0.0000849
1674.0	0.0000904
1672.1	0.0000910
1670.1	0.0001053
1668.2	0.0000917
1666.3	0.0000629
1664.4	0.0000640
1662.4	0.0000751
1660.5	0.0000702
1658.6	0.0000679
1656.6	0.0001358
1654.7	0.0002979
1652.8	0.0003786
1650.9	0.0002774
1648.9	0.0001897
1647.0	0.0001967
1645.1	0.0001709
1643.1	0.0001005
1641.2	0.0000653
1639.3	0.0000856
1637.4	0.0001403
1635.4	0.0001658
1633.5	0.0001214
1631.6	0.0000686
1629.6	0.0000573
1627.7	0.0000663
1625.8	0.0000761
1623.9	0.0000810
1621.9	0.0000776
1620.0	0.0001030
1618.1	0.0001687
1616.1	0.0001821
1614.2	0.0001154
1612.3	0.0000651
1610.4	0.0000622
1608.4	0.0000662
1606.5	0.0000633
1604.6	0.0000626
1602.6	0.0000655
1600.7	0.0000639
1598.8	0.0000599
1596.9	0.0000612
1594.9	0.0000662
1593.0	0.0000676
1591.1	0.0000679
1589.1	0.0000717
1587.2	0.0000748
1585.3	0.0000699
1583.4	0.0000642
1581.4	0.0000738
1579.5	0.0001287
1577.6	0.0002221
1575.6	0.0002468
1573.7	0.0001787
1571.8	0.0001408
1569.9	0.0001497
1567.9	0.0001358
1566.0	0.0001117
1564.1	0.0001178
1562.1	0.0001849
1560.2	0.0003003
1558.3	0.0003521
1556.4	0.0002966
1554.4	0.0002194
1552.5	0.0001651
1550.6	0.0001291
1548.6	0.0001176
1546.7	0.0001408
1544.8	0.0002020
1542.9	0.0002902
1540.9	0.0003514
1539.0	0.0003102
1537.1	0.0002147
1535.1	0.0001805
1533.2	0.0001825
1531.3	0.0001557
1529.4	0.0001309
1527.4	0.0001336
1525.5	0.0001534
1523.6	0.0001967
1521.6	0.0002315
1519.7	0.0002126
1517.8	0.0001679
1515.9	0.0001317
1513.9	0.0001094
1512.0	0.0001177
1510.1	0.0001864
1508.1	0.0003074
1506.2	0.0003580
1504.3	0.0002610
1502.4	0.0001429
1500.4	0.0001120
1498.5	0.0001324
1496.6	0.0001432
1494.6	0.0001311
1492.7	0.0001250
1490.8	0.0001331
1488.9	0.0001295
1486.9	0.0001083
1485.0	0.0000884
1483.1	0.0000834
1481.1	0.0000908
1479.2	0.0001052
1477.3	0.0001231
1475.4	0.0001399
1473.4	0.0001527
1471.5	0.0001428
1469.6	0.0001152
1467.6	0.0001153
1465.7	0.0001381
1463.8	0.0001329
1461.9	0.0001198
1459.9	0.0001712
1458.0	0.0002539
1456.1	0.0002481
1454.1	0.0001609
1452.2	0.0001015
1450.3	0.0000945
1448.4	0.0000966
1446.4	0.0000812
1444.5	0.0000606
1442.6	0.0000604
1440.6	0.0000897
1438.7	0.0001429
1436.8	0.0001760
1434.9	0.0001504
1432.9	0.0001073
1431.0	0.0000933
1429.1	0.0000934
1427.1	0.0000898
1425.2	0.0000869
1423.3	0.0000998
1421.4	0.0001420
1419.4	0.0001718
1417.5	0.0001446
1415.6	0.0001016
1413.6	0.0000842
1411.7	0.0000825
1409.8	0.0000860
1407.9	0.0000957
1405.9	0.0001081
1404.0	0.0001103
1402.1	0.0001107
1400.1	0.0001250
1398.2	0.0001384
1396.3	0.0001453
1394.4	0.0001463
1392.4	0.0001288
1390.5	0.0001068
1388.6	0.0000940
1386.6	0.0000797
1384.7	0.0000661
1382.8	0.0000667
1380.9	0.0000780
1378.9	0.0000856
1377.0	0.0000869
1375.1	0.0000895
1373.1	0.0000897
1371.2	0.0000846
1369.3	0.0000807
1367.4	0.0000773
1365.4	0.0000749
1363.5	0.0000800
1361.6	0.0000849
1359.6	0.0000793
1357.7	0.0000740
1355.8	0.0000764
1353.9	0.0000728
1351.9	0.0000629
1350.0	0.0000618
1348.1	0.0000647
1346.1	0.0000602
1344.2	0.0000594
1342.3	0.0000718
1340.4	0.0000854
1338.4	0.0000890
1336.5	0.0000849
1334.6	0.0000771
1332.6	0.0000711
1330.7	0.0000712
1328.8	0.0000724
1326.9	0.0000711
1324.9	0.0000724
1323.0	0.0000756
1321.1	0.0000753
1319.1	0.0000723
1317.2	0.0000678
1315.3	0.0000621
1313.4	0.0000595
1311.4	0.0000642
1309.5	0.0000689
1307.6	0.0000632
1305.6	0.0000534
1303.7	0.0000518
1301.8	0.0000578
1299.9	0.0000664
1297.9	0.0000768
1296.0	0.0000837
1294.1	0.0000827
1292.1	0.0000810
1290.2	0.0000833
1288.3	0.0000842
1286.4	0.0000791
1284.4	0.0000713
1282.5	0.0000668
1280.6	0.0000664
1278.6	0.0000671
1276.7	0.0000692
1274.8	0.0000724
1272.9	0.0000728
1270.9	0.0000713
1269.0	0.0000721
1267.1	0.0000769
1265.1	0.0000845
1263.2	0.0000914
1261.3	0.0000934
1259.4	0.0000882
1257.4	0.0000812
1255.5	0.0000788
1253.6	0.0000796
1251.6	0.0000819
1249.7	0.0000867
1247.8	0.0000905
1245.9	0.0000917
1243.9	0.0000937
1242.0	0.0000965
1240.1	0.0000952
1238.1	0.0000896
1236.2	0.0000829
1234.3	0.0000758
1232.4	0.0000675
1230.4	0.0000605
1228.5	0.0000631
1226.6	0.0000769
1224.6	0.0000879
1222.7	0.0000855
1220.8	0.0000823
1218.9	0.0000859
1216.9	0.0000849
1215.0	0.0000803
1213.1	0.0000828
1211.1	0.0000907
1209.2	0.0000933
1207.3	0.0000895
1205.4	0.0000866
1203.4	0.0000832
1201.5	0.0000807
1199.6	0.0000859
1197.6	0.0000925
1195.7	0.0000926
1193.8	0.0000853
1191.9	0.0000752
1189.9	0.0000714
1188.0	0.0000775
1186.1	0.0000835
1184.1	0.0000718
1182.2	0.0000527
1180.3	0.0000654
1178.4	0.0000982
1176.4	0.0001017
1174.5	0.0000822
1172.6	0.0000738
1170.6	0.0000742
1168.7	0.0000668
1166.8	0.0000540
1164.9	0.0000497
1162.9	0.0000578
1161.0	0.0000670
1159.1	0.0000714
1157.1	0.0000766
1155.2	0.0000801
1153.3	0.0000739
1151.4	0.0000617
1149.4	0.0000512
1147.5	0.0000443
1145.6	0.0000441
1143.6	0.0000528
1141.7	0.0000670
1139.8	0.0000787
1137.9	0.0000851
1135.9	0.0000887
1134.0	0.0000834
1132.1	0.0000677
1130.1	0.0000559
1128.2	0.0000547
1126.3	0.0000602
1124.4	0.0000643
1122.4	0.0000608
1120.5	0.0000575
1118.6	0.0000630
1116.6	0.0000696
1114.7	0.0000695
1112.8	0.0000670
1110.9	0.0000607
1108.9	0.0000496
1107.0	0.0000460
1105.1	0.0000506
1103.1	0.0000500
1101.2	0.0000451
1099.3	0.0000434
1097.4	0.0000405
1095.4	0.0000394
1093.5	0.0000521
1091.6	0.0000685
1089.6	0.0000691
1087.7	0.0000550
1085.8	0.0000400
1083.9	0.0000324
1081.9	0.0000292
1080.0	0.0000242
1078.1	0.0000216
1076.1	0.0000264
1074.2	0.0000389
1072.3	0.0000554
1070.4	0.0000637
1068.4	0.0000565
1066.5	0.0000471
1064.6	0.0000475
1062.6	0.0000502
1060.7	0.0000478
1058.8	0.0000405
1056.9	0.0000327
1054.9	0.0000354
1053.0	0.0000471
1051.1	0.0000525
1049.1	0.0000487
1047.2	0.0000441
1045.3	0.0000417
1043.4	0.0000387
1041.4	0.0000355
1039.5	0.0000354
1037.6	0.0000362
1035.6	0.0000322
1033.7	0.0000261
1031.8	0.0000239
1029.9	0.0000236
1027.9	0.0000225
1026.0	0.0000228
1024.1	0.0000238
1022.1	0.0000267
1020.2	0.0000373
1018.3	0.0000492
1016.4	0.0000498
1014.4	0.0000419
1012.5	0.0000336
1010.6	0.0000263
1008.6	0.0000229
1006.7	0.0000234
1004.8	0.0000247
1002.9	0.0000266
1000.9	0.0000320
999.0	0.0000388
997.1	0.0000386
995.1	0.0000325
993.2	0.0000330
991.3	0.0000396
989.4	0.0000438
987.4	0.0000438
985.5	0.0000425
983.6	0.0000474
981.6	0.0000577
979.7	0.0000598
977.8	0.0000539
975.9	0.0000501
973.9	0.0000477
972.0	0.0000426
970.1	0.0000371
968.1	0.0000380
966.2	0.0000428
964.3	0.0000380
962.4	0.0000285
960.4	0.0000286
958.5	0.0000305
956.6	0.0000258
954.6	0.0000222
952.7	0.0000216
950.8	0.0000215
948.9	0.0000213
946.9	0.0000173
945.0	0.0000131
943.1	0.0000157
941.1	0.0000188
939.2	0.0000202
937.3	0.0000242
935.4	0.0000215
933.4	0.0000085
931.5	-0.0000090
929.6	-0.0000294
927.6	-0.0000427
925.7	-0.0000445
923.8	-0.0000458
921.9	-0.0000455
919.9	-0.0000441
918.0	-0.0000547
916.1	-0.0000683
914.1	-0.0000664
912.2	-0.0000515
910.3	-0.0000390
908.4	-0.0000390
906.4	-0.0000432
904.5	-0.0000426
902.6	-0.0000436
900.6	-0.0000387
898.7	-0.0000228
896.8	-0.0000254
894.9	-0.0000529
892.9	-0.0000741
891.0	-0.0000794
889.1	-0.0000764
887.1	-0.0000639
885.2	-0.0000492
883.3	-0.0000431
881.4	-0.0000460
879.4	-0.0000493
877.5	-0.0000442
875.6	-0.0000300
873.6	-0.0000234
871.7	-0.0000372
869.8	-0.0000502
867.9	-0.0000518
865.9	-0.0000688
864.0	-0.0000921
862.1	-0.0000842
860.1	-0.0000602
858.2	-0.0000553
856.3	-0.0000581
854.4	-0.0000422
852.4	-0.0000145
850.5	0.0000020
848.6	0.0000013
846.6	0.0000027
844.7	0.0000208
842.8	0.0000341
840.9	0.0000161
838.9	-0.0000182
837.0	-0.0000298
835.1	-0.0000181
833.1	-0.0000179
831.2	-0.0000242
829.3	-0.0000045
827.4	0.0000303
825.4	0.0000562
823.5	0.0000767
821.6	0.0000878
819.6	0.0000846
817.7	0.0000751
815.8	0.0000592
813.9	0.0000476
811.9	0.0000454
810.0	0.0000430
808.1	0.0000513
806.1	0.0000609
804.2	0.0000523
802.3	0.0000494
800.4	0.0000590
798.4	0.0000524
796.5	0.0000254
794.6	0.0000142
792.6	0.0000449
790.7	0.0000819
788.8	0.0000931
786.9	0.0000908
784.9	0.0000966
783.0	0.0001222
781.1	0.0001348
779.1	0.0001127
777.2	0.0001035
775.3	0.0001232
773.4	0.0001437
771.4	0.0001845
769.5	0.0002541
767.6	0.0002651
765.6	0.0002039
763.7	0.0001941
761.8	0.0002518
759.9	0.0002892
757.9	0.0003078
756.0	0.0003356
754.1	0.0003424
752.1	0.0003087
750.2	0.0002497
748.3	0.0002165
746.4	0.0002633
744.4	0.0003341
742.5	0.0003158
740.6	0.0002126
738.6	0.0001403
736.7	0.0001344
734.8	0.0001273
732.9	0.0001327
730.9	0.0002118
729.0	0.0003269
727.1	0.0003488
725.1	0.0002676
723.2	0.0001960
721.3	0.0001574
719.4	0.0001684
717.4	0.0002089
715.5	0.0002333
713.6	0.0002772
711.6	0.0002975
709.7	0.0002308
707.8	0.0000915
705.9	-0.0000205
703.9	0.0000272
702.0	0.0001944
700.1	0.0003067
698.1	0.0002772
696.2	0.0001615
694.3	0.0000959
692.4	0.0001231
690.4	0.0001187
688.5	0.0000892
686.6	0.0001401
684.6	0.0002527
682.7	0.0004243
680.8	0.0005924
678.9	0.0006088
676.9	0.0004130
675.0	0.0001951
673.1	0.0001976
671.1	0.0002927
669.2	0.0003599
667.3	0.0005565
665.4	0.0008286
663.4	0.0009281
661.5	0.0007480
659.6	0.0003593
657.6	-0.0000063
655.7	-0.0000257
653.8	0.0003547
651.9	0.0006579
649.9	0.0004567
648.0	0.0000192
646.1	-0.0001493
644.1	-0.0000095
642.2	0.0001782
640.3	0.0002670
638.4	0.0002410
636.4	0.0001853
634.5	0.0002187
632.6	0.0003079
630.6	0.0003445
628.7	0.0003365
626.8	0.0002901
624.9	0.0002013
622.9	0.0001319
621.0	0.0000674
619.1	0.0000090
617.1	0.0000207
615.2	0.0000249
613.3	0.0000067
611.4	0.0000804
609.4	0.0001727
607.5	0.0001668
605.6	0.0001237
603.6	0.0001481
601.7	0.0002336
599.8	0.0002234
