3997.91406	-0.00370
3995.98550	-0.00373
3994.05693	-0.00373
3992.12837	-0.00372
3990.19980	-0.00371
3988.27124	-0.00371
3986.34268	-0.00371
3984.41411	-0.00371
3982.48555	-0.00369
3980.55698	-0.00368
3978.62842	-0.00369
3976.69985	-0.00368
3974.77129	-0.00368
3972.84272	-0.00369
3970.91416	-0.00371
3968.98560	-0.00372
3967.05703	-0.00371
3965.12847	-0.00369
3963.19990	-0.00367
3961.27134	-0.00365
3959.34277	-0.00366
3957.41421	-0.00368
3955.48564	-0.00368
3953.55708	-0.00366
3951.62852	-0.00366
3949.69995	-0.00367
3947.77139	-0.00370
3945.84282	-0.00372
3943.91426	-0.00372
3941.98569	-0.00374
3940.05713	-0.00375
3938.12856	-0.00374
3936.20000	-0.00371
3934.27144	-0.00368
3932.34287	-0.00368
3930.41431	-0.00369
3928.48574	-0.00372
3926.55718	-0.00374
3924.62861	-0.00374
3922.70005	-0.00376
3920.77148	-0.00376
3918.84292	-0.00374
3916.91436	-0.00374
3914.98579	-0.00376
3913.05723	-0.00377
3911.12866	-0.00376
3909.20010	-0.00375
3907.27153	-0.00373
3905.34297	-0.00369
3903.41440	-0.00366
3901.48584	-0.00367
3899.55728	-0.00370
3897.62871	-0.00374
3895.70015	-0.00375
3893.77158	-0.00371
3891.84302	-0.00369
3889.91445	-0.00373
3887.98589	-0.00374
3886.05733	-0.00371
3884.12876	-0.00372
3882.20020	-0.00375
3880.27163	-0.00378
3878.34307	-0.00380
3876.41450	-0.00379
3874.48594	-0.00375
3872.55737	-0.00372
3870.62881	-0.00369
3868.70025	-0.00370
3866.77168	-0.00371
3864.84312	-0.00370
3862.91455	-0.00371
3860.98599	-0.00375
3859.05742	-0.00376
3857.12886	-0.00365
3855.20029	-0.00347
3853.27173	-0.00343
3851.34317	-0.00359
3849.41460	-0.00376
3847.48604	-0.00382
3845.55747	-0.00382
3843.62891	-0.00381
3841.70034	-0.00377
3839.77178	-0.00370
3837.84321	-0.00367
3835.91465	-0.00373
3833.98609	-0.00379
3832.05752	-0.00380
3830.12896	-0.00382
3828.20039	-0.00385
3826.27183	-0.00386
3824.34326	-0.00383
3822.41470	-0.00377
3820.48613	-0.00376
3818.55757	-0.00376
3816.62901	-0.00375
3814.70044	-0.00380
3812.77188	-0.00388
3810.84331	-0.00389
3808.91475	-0.00384
3806.98618	-0.00383
3805.05762	-0.00384
3803.12905	-0.00379
3801.20049	-0.00377
3799.27193	-0.00382
3797.34336	-0.00388
3795.41480	-0.00392
3793.48623	-0.00395
3791.55767	-0.00395
3789.62910	-0.00395
3787.70054	-0.00395
3785.77197	-0.00395
3783.84341	-0.00395
3781.91485	-0.00396
3779.98628	-0.00397
3778.05772	-0.00396
3776.12915	-0.00394
3774.20059	-0.00392
3772.27202	-0.00389
3770.34346	-0.00389
3768.41489	-0.00391
3766.48633	-0.00393
3764.55777	-0.00397
3762.62920	-0.00398
3760.70064	-0.00394
3758.77207	-0.00391
3756.84351	-0.00392
3754.91494	-0.00388
3752.98638	-0.00376
3751.05781	-0.00368
3749.12925	-0.00371
3747.20069	-0.00372
3745.27212	-0.00369
3743.34356	-0.00376
3741.41499	-0.00388
3739.48643	-0.00391
3737.55786	-0.00386
3735.62930	-0.00383
3733.70074	-0.00385
3731.77217	-0.00393
3729.84361	-0.00400
3727.91504	-0.00401
3725.98648	-0.00400
3724.05791	-0.00399
3722.12935	-0.00400
3720.20078	-0.00403
3718.27222	-0.00407
3716.34366	-0.00408
3714.41509	-0.00402
3712.48653	-0.00395
3710.55796	-0.00395
3708.62940	-0.00400
3706.70083	-0.00405
3704.77227	-0.00407
3702.84370	-0.00408
3700.91514	-0.00410
3698.98658	-0.00414
3697.05801	-0.00415
3695.12945	-0.00413
3693.20088	-0.00408
3691.27232	-0.00399
3689.34375	-0.00393
3687.41519	-0.00398
3685.48662	-0.00406
3683.55806	-0.00410
3681.62950	-0.00410
3679.70093	-0.00407
3677.77237	-0.00399
3675.84380	-0.00393
3673.91524	-0.00393
3671.98667	-0.00394
3670.05811	-0.00396
3668.12954	-0.00406
3666.20098	-0.00415
3664.27242	-0.00418
3662.34385	-0.00417
3660.41529	-0.00416
3658.48672	-0.00413
3656.55816	-0.00410
3654.62959	-0.00410
3652.70103	-0.00408
3650.77246	-0.00401
3648.84390	-0.00399
3646.91534	-0.00406
3644.98677	-0.00413
3643.05821	-0.00417
3641.12964	-0.00419
3639.20108	-0.00420
3637.27251	-0.00422
3635.34395	-0.00422
3633.41538	-0.00421
3631.48682	-0.00414
3629.55826	-0.00406
3627.62969	-0.00408
3625.70113	-0.00418
3623.77256	-0.00422
3621.84400	-0.00418
3619.91543	-0.00413
3617.98687	-0.00415
3616.05830	-0.00423
3614.12974	-0.00426
3612.20118	-0.00426
3610.27261	-0.00424
3608.34405	-0.00425
3606.41548	-0.00429
3604.48692	-0.00431
3602.55835	-0.00430
3600.62979	-0.00428
3598.70123	-0.00425
3596.77266	-0.00425
3594.84410	-0.00427
3592.91553	-0.00430
3590.98697	-0.00429
3589.05840	-0.00424
3587.12984	-0.00424
3585.20127	-0.00429
3583.27271	-0.00433
3581.34415	-0.00434
3579.41558	-0.00435
3577.48702	-0.00438
3575.55845	-0.00438
3573.62989	-0.00436
3571.70132	-0.00434
3569.77276	-0.00432
3567.84419	-0.00431
3565.91563	-0.00432
3563.98707	-0.00435
3562.05850	-0.00436
3560.12994	-0.00437
3558.20137	-0.00439
3556.27281	-0.00441
3554.34424	-0.00443
3552.41568	-0.00443
3550.48711	-0.00442
3548.55855	-0.00441
3546.62999	-0.00440
3544.70142	-0.00440
3542.77286	-0.00442
3540.84429	-0.00443
3538.91573	-0.00443
3536.98716	-0.00445
3535.05860	-0.00447
3533.13003	-0.00448
3531.20147	-0.00446
3529.27291	-0.00444
3527.34434	-0.00442
3525.41578	-0.00441
3523.48721	-0.00442
3521.55865	-0.00445
3519.63008	-0.00449
3517.70152	-0.00453
3515.77295	-0.00452
3513.84439	-0.00450
3511.91583	-0.00449
3509.98726	-0.00452
3508.05870	-0.00456
3506.13013	-0.00459
3504.20157	-0.00459
3502.27300	-0.00458
3500.34444	-0.00458
3498.41587	-0.00457
3496.48731	-0.00455
3494.55875	-0.00456
3492.63018	-0.00457
3490.70162	-0.00458
3488.77305	-0.00458
3486.84449	-0.00459
3484.91592	-0.00459
3482.98736	-0.00458
3481.05879	-0.00457
3479.13023	-0.00459
3477.20167	-0.00462
3475.27310	-0.00466
3473.34454	-0.00468
3471.41597	-0.00467
3469.48741	-0.00466
3467.55884	-0.00466
3465.63028	-0.00468
3463.70171	-0.00469
3461.77315	-0.00469
3459.84459	-0.00468
3457.91602	-0.00468
3455.98746	-0.00469
3454.05889	-0.00470
3452.13033	-0.00470
3450.20176	-0.00469
3448.27320	-0.00470
3446.34464	-0.00473
3444.41607	-0.00475
3442.48751	-0.00477
3440.55894	-0.00479
3438.63038	-0.00479
3436.70181	-0.00476
3434.77325	-0.00476
3432.84468	-0.00480
3430.91612	-0.00484
3428.98756	-0.00486
3427.05899	-0.00487
3425.13043	-0.00487
3423.20186	-0.00487
3421.27330	-0.00487
3419.34473	-0.00487
3417.41617	-0.00486
3415.48760	-0.00485
3413.55904	-0.00483
3411.63048	-0.00482
3409.70191	-0.00482
3407.77335	-0.00482
3405.84478	-0.00482
3403.91622	-0.00483
3401.98765	-0.00485
3400.05909	-0.00486
3398.13052	-0.00486
3396.20196	-0.00485
3394.27340	-0.00484
3392.34483	-0.00482
3390.41627	-0.00481
3388.48770	-0.00482
3386.55914	-0.00483
3384.63057	-0.00484
3382.70201	-0.00486
3380.77344	-0.00488
3378.84488	-0.00487
3376.91632	-0.00484
3374.98775	-0.00484
3373.05919	-0.00486
3371.13062	-0.00488
3369.20206	-0.00488
3367.27349	-0.00488
3365.34493	-0.00489
3363.41636	-0.00489
3361.48780	-0.00489
3359.55924	-0.00487
3357.63067	-0.00484
3355.70211	-0.00486
3353.77354	-0.00489
3351.84498	-0.00491
3349.91641	-0.00491
3347.98785	-0.00491
3346.05928	-0.00492
3344.13072	-0.00493
3342.20216	-0.00493
3340.27359	-0.00491
3338.34503	-0.00492
3336.41646	-0.00495
3334.48790	-0.00498
3332.55933	-0.00498
3330.63077	-0.00497
3328.70220	-0.00496
3326.77364	-0.00496
3324.84508	-0.00497
3322.91651	-0.00499
3320.98795	-0.00500
3319.05938	-0.00499
3317.13082	-0.00498
3315.20225	-0.00498
3313.27369	-0.00500
3311.34513	-0.00501
3309.41656	-0.00501
3307.48800	-0.00500
3305.55943	-0.00500
3303.63087	-0.00502
3301.70230	-0.00502
3299.77374	-0.00500
3297.84517	-0.00497
3295.91661	-0.00497
3293.98805	-0.00498
3292.05948	-0.00499
3290.13092	-0.00502
3288.20235	-0.00505
3286.27379	-0.00505
3284.34522	-0.00505
3282.41666	-0.00505
3280.48809	-0.00506
3278.55953	-0.00506
3276.63097	-0.00506
3274.70240	-0.00505
3272.77384	-0.00506
3270.84527	-0.00508
3268.91671	-0.00509
3266.98814	-0.00509
3265.05958	-0.00510
3263.13101	-0.00511
3261.20245	-0.00514
3259.27389	-0.00516
3257.34532	-0.00516
3255.41676	-0.00515
3253.48819	-0.00513
3251.55963	-0.00514
3249.63106	-0.00514
3247.70250	-0.00514
3245.77393	-0.00516
3243.84537	-0.00517
3241.91681	-0.00516
3239.98824	-0.00515
3238.05968	-0.00515
3236.13111	-0.00517
3234.20255	-0.00519
3232.27398	-0.00521
3230.34542	-0.00521
3228.41685	-0.00522
3226.48829	-0.00523
3224.55973	-0.00523
3222.63116	-0.00522
3220.70260	-0.00523
3218.77403	-0.00525
3216.84547	-0.00525
3214.91690	-0.00525
3212.98834	-0.00526
3211.05977	-0.00527
3209.13121	-0.00528
3207.20265	-0.00530
3205.27408	-0.00532
3203.34552	-0.00533
3201.41695	-0.00534
3199.48839	-0.00536
3197.55982	-0.00537
3195.63126	-0.00540
3193.70269	-0.00540
3191.77413	-0.00540
3189.84557	-0.00539
3187.91700	-0.00540
3185.98844	-0.00543
3184.05987	-0.00546
3182.13131	-0.00549
3180.20274	-0.00548
3178.27418	-0.00547
3176.34562	-0.00548
3174.41705	-0.00550
3172.48849	-0.00550
3170.55992	-0.00549
3168.63136	-0.00548
3166.70279	-0.00549
3164.77423	-0.00551
3162.84566	-0.00555
3160.91710	-0.00558
3158.98854	-0.00559
3157.05997	-0.00559
3155.13141	-0.00560
3153.20284	-0.00562
3151.27428	-0.00565
3149.34571	-0.00567
3147.41715	-0.00568
3145.48858	-0.00569
3143.56002	-0.00570
3141.63146	-0.00571
3139.70289	-0.00571
3137.77433	-0.00571
3135.84576	-0.00572
3133.91720	-0.00574
3131.98863	-0.00576
3130.06007	-0.00578
3128.13150	-0.00581
3126.20294	-0.00583
3124.27438	-0.00585
3122.34581	-0.00586
3120.41725	-0.00587
3118.48868	-0.00589
3116.56012	-0.00590
3114.63155	-0.00590
3112.70299	-0.00592
3110.77442	-0.00593
3108.84586	-0.00593
3106.91730	-0.00593
3104.98873	-0.00596
3103.06017	-0.00601
3101.13160	-0.00603
3099.20304	-0.00604
3097.27447	-0.00603
3095.34591	-0.00604
3093.41734	-0.00606
3091.48878	-0.00608
3089.56022	-0.00609
3087.63165	-0.00609
3085.70309	-0.00609
3083.77452	-0.00611
3081.84596	-0.00611
3079.91739	-0.00610
3077.98883	-0.00610
3076.06026	-0.00611
3074.13170	-0.00611
3072.20314	-0.00610
3070.27457	-0.00610
3068.34601	-0.00611
3066.41744	-0.00612
3064.48888	-0.00613
3062.56031	-0.00612
3060.63175	-0.00611
3058.70318	-0.00612
3056.77462	-0.00615
3054.84606	-0.00619
3052.91749	-0.00622
3050.98893	-0.00625
3049.06036	-0.00628
3047.13180	-0.00632
3045.20323	-0.00636
3043.27467	-0.00641
3041.34610	-0.00647
3039.41754	-0.00652
3037.48898	-0.00657
3035.56041	-0.00660
3033.63185	-0.00663
3031.70328	-0.00666
3029.77472	-0.00669
3027.84615	-0.00669
3025.91759	-0.00667
3023.98903	-0.00664
3022.06046	-0.00662
3020.13190	-0.00661
3018.20333	-0.00660
3016.27477	-0.00659
3014.34620	-0.00659
3012.41764	-0.00661
3010.48907	-0.00663
3008.56051	-0.00665
3006.63195	-0.00667
3004.70338	-0.00671
3002.77482	-0.00676
3000.84625	-0.00680
2998.91769	-0.00683
2996.98912	-0.00684
2995.06056	-0.00685
2993.13199	-0.00686
2991.20343	-0.00686
2989.27487	-0.00688
2987.34630	-0.00689
2985.41774	-0.00690
2983.48917	-0.00692
2981.56061	-0.00695
2979.63204	-0.00699
2977.70348	-0.00702
2975.77491	-0.00705
2973.84635	-0.00706
2971.91779	-0.00708
2969.98922	-0.00709
2968.06066	-0.00707
2966.13209	-0.00704
2964.20353	-0.00702
2962.27496	-0.00701
2960.34640	-0.00701
2958.41783	-0.00701
2956.48927	-0.00701
2954.56071	-0.00703
2952.63214	-0.00705
2950.70358	-0.00709
2948.77501	-0.00715
2946.84645	-0.00724
2944.91788	-0.00734
2942.98932	-0.00740
2941.06075	-0.00742
2939.13219	-0.00744
2937.20363	-0.00747
2935.27506	-0.00753
2933.34650	-0.00758
2931.41793	-0.00761
2929.48937	-0.00763
2927.56080	-0.00764
2925.63224	-0.00765
2923.70367	-0.00766
2921.77511	-0.00764
2919.84655	-0.00760
2917.91798	-0.00759
2915.98942	-0.00758
2914.06085	-0.00754
2912.13229	-0.00747
2910.20372	-0.00741
2908.27516	-0.00737
2906.34659	-0.00733
2904.41803	-0.00730
2902.48947	-0.00726
2900.56090	-0.00722
2898.63234	-0.00719
2896.70377	-0.00715
2894.77521	-0.00710
2892.84664	-0.00704
2890.91808	-0.00700
2888.98952	-0.00698
2887.06095	-0.00695
2885.13239	-0.00691
2883.20382	-0.00688
2881.27526	-0.00688
2879.34669	-0.00690
2877.41813	-0.00691
2875.48956	-0.00691
2873.56100	-0.00690
2871.63244	-0.00690
2869.70387	-0.00691
2867.77531	-0.00691
2865.84674	-0.00691
2863.91818	-0.00691
2861.98961	-0.00691
2860.06105	-0.00691
2858.13248	-0.00690
2856.20392	-0.00687
2854.27536	-0.00685
2852.34679	-0.00685
2850.41823	-0.00684
2848.48966	-0.00682
2846.56110	-0.00678
2844.63253	-0.00674
2842.70397	-0.00670
2840.77540	-0.00667
2838.84684	-0.00665
2836.91828	-0.00663
2834.98971	-0.00662
2833.06115	-0.00661
2831.13258	-0.00663
2829.20402	-0.00667
2827.27545	-0.00671
2825.34689	-0.00675
2823.41832	-0.00679
2821.48976	-0.00683
2819.56120	-0.00685
2817.63263	-0.00688
2815.70407	-0.00690
2813.77550	-0.00690
2811.84694	-0.00688
2809.91837	-0.00687
2807.98981	-0.00686
2806.06124	-0.00686
2804.13268	-0.00687
2802.20412	-0.00687
2800.27555	-0.00687
2798.34699	-0.00687
2796.41842	-0.00688
2794.48986	-0.00687
2792.56129	-0.00686
2790.63273	-0.00685
2788.70416	-0.00683
2786.77560	-0.00680
2784.84704	-0.00679
2782.91847	-0.00680
2780.98991	-0.00680
2779.06134	-0.00679
2777.13278	-0.00679
2775.20421	-0.00678
2773.27565	-0.00676
2771.34708	-0.00674
2769.41852	-0.00675
2767.48996	-0.00676
2765.56139	-0.00679
2763.63283	-0.00681
2761.70426	-0.00685
2759.77570	-0.00689
2757.84713	-0.00693
2755.91857	-0.00699
2753.99001	-0.00705
2752.06144	-0.00710
2750.13288	-0.00712
2748.20431	-0.00712
2746.27575	-0.00713
2744.34718	-0.00713
2742.41862	-0.00713
2740.49005	-0.00712
2738.56149	-0.00711
2736.63293	-0.00709
2734.70436	-0.00707
2732.77580	-0.00704
2730.84723	-0.00704
2728.91867	-0.00705
2726.99010	-0.00705
2725.06154	-0.00705
2723.13297	-0.00706
2721.20441	-0.00708
2719.27585	-0.00711
2717.34728	-0.00716
2715.41872	-0.00721
2713.49015	-0.00728
2711.56159	-0.00735
2709.63302	-0.00739
2707.70446	-0.00739
2705.77589	-0.00738
2703.84733	-0.00738
2701.91877	-0.00738
2699.99020	-0.00742
2698.06164	-0.00750
2696.13307	-0.00762
2694.20451	-0.00773
2692.27594	-0.00779
2690.34738	-0.00779
2688.41881	-0.00776
2686.49025	-0.00771
2684.56169	-0.00765
2682.63312	-0.00760
2680.70456	-0.00756
2678.77599	-0.00753
2676.84743	-0.00750
2674.91886	-0.00748
2672.99030	-0.00745
2671.06173	-0.00741
2669.13317	-0.00736
2667.20461	-0.00730
2665.27604	-0.00725
2663.34748	-0.00720
2661.41891	-0.00717
2659.49035	-0.00717
2657.56178	-0.00719
2655.63322	-0.00721
2653.70465	-0.00726
2651.77609	-0.00733
2649.84753	-0.00741
2647.91896	-0.00754
2645.99040	-0.00772
2644.06183	-0.00790
2642.13327	-0.00803
2640.20470	-0.00805
2638.27614	-0.00797
2636.34757	-0.00782
2634.41901	-0.00766
2632.49045	-0.00753
2630.56188	-0.00743
2628.63332	-0.00734
2626.70475	-0.00727
2624.77619	-0.00721
2622.84762	-0.00715
2620.91906	-0.00710
2618.99049	-0.00706
2617.06193	-0.00701
2615.13337	-0.00698
2613.20480	-0.00697
2611.27624	-0.00696
2609.34767	-0.00694
2607.41911	-0.00692
2605.49054	-0.00690
2603.56198	-0.00690
2601.63342	-0.00691
2599.70485	-0.00693
2597.77629	-0.00695
2595.84772	-0.00696
2593.91916	-0.00697
2591.99059	-0.00699
2590.06203	-0.00703
2588.13346	-0.00710
2586.20490	-0.00723
2584.27634	-0.00741
2582.34777	-0.00757
2580.41921	-0.00764
2578.49064	-0.00759
2576.56208	-0.00747
2574.63351	-0.00734
2572.70495	-0.00724
2570.77638	-0.00717
2568.84782	-0.00710
2566.91926	-0.00704
2564.99069	-0.00698
2563.06213	-0.00694
2561.13356	-0.00692
2559.20500	-0.00690
2557.27643	-0.00688
2555.34787	-0.00686
2553.41930	-0.00686
2551.49074	-0.00686
2549.56218	-0.00687
2547.63361	-0.00686
2545.70505	-0.00685
2543.77648	-0.00684
2541.84792	-0.00682
2539.91935	-0.00681
2537.99079	-0.00682
2536.06222	-0.00681
2534.13366	-0.00680
2532.20510	-0.00678
2530.27653	-0.00677
2528.34797	-0.00675
2526.41940	-0.00675
2524.49084	-0.00676
2522.56227	-0.00677
2520.63371	-0.00679
2518.70514	-0.00678
2516.77658	-0.00676
2514.84802	-0.00676
2512.91945	-0.00676
2510.99089	-0.00677
2509.06232	-0.00677
2507.13376	-0.00677
2505.20519	-0.00676
2503.27663	-0.00676
2501.34806	-0.00678
2499.41950	-0.00678
2497.49094	-0.00679
2495.56237	-0.00680
2493.63381	-0.00682
2491.70524	-0.00682
2489.77668	-0.00681
2487.84811	-0.00679
2485.91955	-0.00679
2483.99098	-0.00681
2482.06242	-0.00682
2480.13386	-0.00681
2478.20529	-0.00682
2476.27673	-0.00682
2474.34816	-0.00681
2472.41960	-0.00681
2470.49103	-0.00682
2468.56247	-0.00683
2466.63391	-0.00683
2464.70534	-0.00684
2462.77678	-0.00685
2460.84821	-0.00687
2458.91965	-0.00687
2456.99108	-0.00688
2455.06252	-0.00688
2453.13395	-0.00687
2451.20539	-0.00688
2449.27683	-0.00689
2447.34826	-0.00690
2445.41970	-0.00689
2443.49113	-0.00689
2441.56257	-0.00688
2439.63400	-0.00687
2437.70544	-0.00687
2435.77687	-0.00689
2433.84831	-0.00691
2431.91975	-0.00691
2429.99118	-0.00691
2428.06262	-0.00691
2426.13405	-0.00691
2424.20549	-0.00692
2422.27692	-0.00691
2420.34836	-0.00689
2418.41979	-0.00690
2416.49123	-0.00691
2414.56267	-0.00692
2412.63410	-0.00692
2410.70554	-0.00693
2408.77697	-0.00692
2406.84841	-0.00692
2404.91984	-0.00692
2402.99128	-0.00692
2401.06271	-0.00692
2399.13415	-0.00693
2397.20559	-0.00694
2395.27702	-0.00695
2393.34846	-0.00695
2391.41989	-0.00694
2389.49133	-0.00694
2387.56276	-0.00694
2385.63420	-0.00694
2383.70563	-0.00695
2381.77707	-0.00697
2379.84851	-0.00699
2377.91994	-0.00702
2375.99138	-0.00705
2374.06281	-0.00710
2372.13425	-0.00716
2370.20568	-0.00722
2368.27712	-0.00728
2366.34855	-0.00734
2364.41999	-0.00739
2362.49143	-0.00742
2360.56286	-0.00741
2358.63430	-0.00739
2356.70573	-0.00734
2354.77717	-0.00727
2352.84860	-0.00719
2350.92004	-0.00713
2348.99147	-0.00711
2347.06291	-0.00713
2345.13435	-0.00717
2343.20578	-0.00723
2341.27722	-0.00727
2339.34865	-0.00730
2337.42009	-0.00733
2335.49152	-0.00735
2333.56296	-0.00735
2331.63440	-0.00731
2329.70583	-0.00728
2327.77727	-0.00726
2325.84870	-0.00724
2323.92014	-0.00721
2321.99157	-0.00720
2320.06301	-0.00720
2318.13444	-0.00720
2316.20588	-0.00718
2314.27732	-0.00716
2312.34875	-0.00714
2310.42019	-0.00714
2308.49162	-0.00715
2306.56306	-0.00715
2304.63449	-0.00715
2302.70593	-0.00713
2300.77736	-0.00711
2298.84880	-0.00709
2296.92024	-0.00708
2294.99167	-0.00708
2293.06311	-0.00709
2291.13454	-0.00709
2289.20598	-0.00709
2287.27741	-0.00708
2285.34885	-0.00709
2283.42028	-0.00710
2281.49172	-0.00711
2279.56316	-0.00711
2277.63459	-0.00710
2275.70603	-0.00709
2273.77746	-0.00710
2271.84890	-0.00712
2269.92033	-0.00714
2267.99177	-0.00715
2266.06320	-0.00715
2264.13464	-0.00717
2262.20608	-0.00719
2260.27751	-0.00720
2258.34895	-0.00720
2256.42038	-0.00720
2254.49182	-0.00719
2252.56325	-0.00717
2250.63469	-0.00714
2248.70612	-0.00713
2246.77756	-0.00713
2244.84900	-0.00713
2242.92043	-0.00712
2240.99187	-0.00712
2239.06330	-0.00713
2237.13474	-0.00712
2235.20617	-0.00711
2233.27761	-0.00712
2231.34904	-0.00714
2229.42048	-0.00714
2227.49192	-0.00715
2225.56335	-0.00715
2223.63479	-0.00716
2221.70622	-0.00717
2219.77766	-0.00716
2217.84909	-0.00716
2215.92053	-0.00716
2213.99196	-0.00717
2212.06340	-0.00719
2210.13484	-0.00719
2208.20627	-0.00717
2206.27771	-0.00716
2204.34914	-0.00716
2202.42058	-0.00717
2200.49201	-0.00716
2198.56345	-0.00717
2196.63488	-0.00720
2194.70632	-0.00723
2192.77776	-0.00724
2190.84919	-0.00724
2188.92063	-0.00724
2186.99206	-0.00725
2185.06350	-0.00727
2183.13493	-0.00729
2181.20637	-0.00727
2179.27781	-0.00725
2177.34924	-0.00724
2175.42068	-0.00725
2173.49211	-0.00726
2171.56355	-0.00726
2169.63498	-0.00726
2167.70642	-0.00726
2165.77785	-0.00726
2163.84929	-0.00726
2161.92073	-0.00727
2159.99216	-0.00727
2158.06360	-0.00726
2156.13503	-0.00726
2154.20647	-0.00727
2152.27790	-0.00728
2150.34934	-0.00729
2148.42077	-0.00729
2146.49221	-0.00730
2144.56365	-0.00731
2142.63508	-0.00731
2140.70652	-0.00732
2138.77795	-0.00732
2136.84939	-0.00733
2134.92082	-0.00732
2132.99226	-0.00732
2131.06369	-0.00732
2129.13513	-0.00732
2127.20657	-0.00732
2125.27800	-0.00734
2123.34944	-0.00734
2121.42087	-0.00734
2119.49231	-0.00734
2117.56374	-0.00734
2115.63518	-0.00734
2113.70661	-0.00734
2111.77805	-0.00735
2109.84949	-0.00736
2107.92092	-0.00736
2105.99236	-0.00737
2104.06379	-0.00737
2102.13523	-0.00737
2100.20666	-0.00736
2098.27810	-0.00736
2096.34953	-0.00737
2094.42097	-0.00737
2092.49241	-0.00736
2090.56384	-0.00736
2088.63528	-0.00737
2086.70671	-0.00739
2084.77815	-0.00738
2082.84958	-0.00738
2080.92102	-0.00739
2078.99245	-0.00741
2077.06389	-0.00742
2075.13533	-0.00741
2073.20676	-0.00740
2071.27820	-0.00740
2069.34963	-0.00739
2067.42107	-0.00739
2065.49250	-0.00740
2063.56394	-0.00742
2061.63537	-0.00744
2059.70681	-0.00744
2057.77825	-0.00743
2055.84968	-0.00742
2053.92112	-0.00744
2051.99255	-0.00745
2050.06399	-0.00744
2048.13542	-0.00742
2046.20686	-0.00743
2044.27830	-0.00745
2042.34973	-0.00746
2040.42117	-0.00746
2038.49260	-0.00748
2036.56404	-0.00748
2034.63547	-0.00748
2032.70691	-0.00747
2030.77834	-0.00746
2028.84978	-0.00746
2026.92122	-0.00747
2024.99265	-0.00749
2023.06409	-0.00750
2021.13552	-0.00750
2019.20696	-0.00750
2017.27839	-0.00750
2015.34983	-0.00750
2013.42126	-0.00751
2011.49270	-0.00752
2009.56414	-0.00752
2007.63557	-0.00751
2005.70701	-0.00751
2003.77844	-0.00751
2001.84988	-0.00752
1999.92131	-0.00753
1997.99275	-0.00754
1996.06418	-0.00754
1994.13562	-0.00753
1992.20706	-0.00752
1990.27849	-0.00753
1988.34993	-0.00753
1986.42136	-0.00755
1984.49280	-0.00756
1982.56423	-0.00756
1980.63567	-0.00755
1978.70710	-0.00754
1976.77854	-0.00754
1974.84998	-0.00756
1972.92141	-0.00756
1970.99285	-0.00755
1969.06428	-0.00755
1967.13572	-0.00755
1965.20715	-0.00756
1963.27859	-0.00757
1961.35002	-0.00757
1959.42146	-0.00757
1957.49290	-0.00757
1955.56433	-0.00756
1953.63577	-0.00755
1951.70720	-0.00755
1949.77864	-0.00754
1947.85007	-0.00754
1945.92151	-0.00754
1943.99294	-0.00753
1942.06438	-0.00754
1940.13582	-0.00755
1938.20725	-0.00756
1936.27869	-0.00756
1934.35012	-0.00755
1932.42156	-0.00755
1930.49299	-0.00756
1928.56443	-0.00757
1926.63586	-0.00758
1924.70730	-0.00759
1922.77874	-0.00759
1920.85017	-0.00758
1918.92161	-0.00755
1916.99304	-0.00756
1915.06448	-0.00760
1913.13591	-0.00761
1911.20735	-0.00760
1909.27878	-0.00756
1907.35022	-0.00755
1905.42166	-0.00756
1903.49309	-0.00758
1901.56453	-0.00758
1899.63596	-0.00758
1897.70740	-0.00758
1895.77883	-0.00758
1893.85027	-0.00757
1891.92171	-0.00756
1889.99314	-0.00756
1888.06458	-0.00756
1886.13601	-0.00755
1884.20745	-0.00754
1882.27888	-0.00753
1880.35032	-0.00752
1878.42175	-0.00749
1876.49319	-0.00747
1874.56463	-0.00748
1872.63606	-0.00749
1870.70750	-0.00750
1868.77893	-0.00752
1866.85037	-0.00757
1864.92180	-0.00763
1862.99324	-0.00769
1861.06467	-0.00771
1859.13611	-0.00772
1857.20755	-0.00773
1855.27898	-0.00775
1853.35042	-0.00777
1851.42185	-0.00778
1849.49329	-0.00778
1847.56472	-0.00778
1845.63616	-0.00776
1843.70759	-0.00779
1841.77903	-0.00786
1839.85047	-0.00793
1837.92190	-0.00797
1835.99334	-0.00799
1834.06477	-0.00802
1832.13621	-0.00802
1830.20764	-0.00802
1828.27908	-0.00802
1826.35051	-0.00801
1824.42195	-0.00800
1822.49339	-0.00800
1820.56482	-0.00800
1818.63626	-0.00797
1816.70769	-0.00794
1814.77913	-0.00792
1812.85056	-0.00790
1810.92200	-0.00790
1808.99343	-0.00792
1807.06487	-0.00794
1805.13631	-0.00798
1803.20774	-0.00808
1801.27918	-0.00827
1799.35061	-0.00851
1797.42205	-0.00867
1795.49348	-0.00865
1793.56492	-0.00847
1791.63635	-0.00829
1789.70779	-0.00818
1787.77923	-0.00811
1785.85066	-0.00804
1783.92210	-0.00800
1781.99353	-0.00799
1780.06497	-0.00800
1778.13640	-0.00802
1776.20784	-0.00801
1774.27927	-0.00797
1772.35071	-0.00795
1770.42215	-0.00798
1768.49358	-0.00804
1766.56502	-0.00809
1764.63645	-0.00813
1762.70789	-0.00818
1760.77932	-0.00831
1758.85076	-0.00853
1756.92220	-0.00883
1754.99363	-0.00909
1753.06507	-0.00915
1751.13650	-0.00905
1749.20794	-0.00898
1747.27937	-0.00902
1745.35081	-0.00915
1743.42224	-0.00936
1741.49368	-0.00972
1739.56512	-0.01031
1737.63655	-0.01113
1735.70799	-0.01204
1733.77942	-0.01302
1731.85086	-0.01396
1729.92229	-0.01470
1727.99373	-0.01527
1726.06516	-0.01583
1724.13660	-0.01651
1722.20804	-0.01738
1720.27947	-0.01844
1718.35091	-0.01994
1716.42234	-0.02238
1714.49378	-0.02531
1712.56521	-0.02660
1710.63665	-0.02442
1708.70808	-0.02001
1706.77952	-0.01619
1704.85096	-0.01413
1702.92239	-0.01314
1700.99383	-0.01242
1699.06526	-0.01173
1697.13670	-0.01100
1695.20813	-0.01029
1693.27957	-0.00972
1691.35100	-0.00928
1689.42244	-0.00891
1687.49388	-0.00856
1685.56531	-0.00820
1683.63675	-0.00803
1681.70818	-0.00807
1679.77962	-0.00811
1677.85105	-0.00806
1675.92249	-0.00799
1673.99392	-0.00798
1672.06536	-0.00798
1670.13680	-0.00797
1668.20823	-0.00803
1666.27967	-0.00813
1664.35110	-0.00818
1662.42254	-0.00823
1660.49397	-0.00832
1658.56541	-0.00837
1656.63684	-0.00824
1654.70828	-0.00800
1652.77972	-0.00790
1650.85115	-0.00803
1648.92259	-0.00812
1646.99402	-0.00810
1645.06546	-0.00812
1643.13689	-0.00818
1641.20833	-0.00818
1639.27976	-0.00809
1637.35120	-0.00793
1635.42264	-0.00784
1633.49407	-0.00789
1631.56551	-0.00795
1629.63694	-0.00794
1627.70838	-0.00790
1625.77981	-0.00785
1623.85125	-0.00782
1621.92269	-0.00783
1619.99412	-0.00784
1618.06556	-0.00778
1616.13699	-0.00777
1614.20843	-0.00786
1612.27986	-0.00794
1610.35130	-0.00795
1608.42273	-0.00793
1606.49417	-0.00791
1604.56561	-0.00790
1602.63704	-0.00790
1600.70848	-0.00788
1598.77991	-0.00787
1596.85135	-0.00787
1594.92278	-0.00786
1592.99422	-0.00784
1591.06565	-0.00783
1589.13709	-0.00783
1587.20853	-0.00782
1585.27996	-0.00781
1583.35140	-0.00781
1581.42283	-0.00779
1579.49427	-0.00772
1577.56570	-0.00761
1575.63714	-0.00758
1573.70857	-0.00765
1571.78001	-0.00769
1569.85145	-0.00768
1567.92288	-0.00771
1565.99432	-0.00775
1564.06575	-0.00773
1562.13719	-0.00757
1560.20862	-0.00736
1558.28006	-0.00734
1556.35149	-0.00752
1554.42293	-0.00766
1552.49437	-0.00773
1550.56580	-0.00777
1548.63724	-0.00779
1546.70867	-0.00777
1544.78011	-0.00771
1542.85154	-0.00762
1540.92298	-0.00757
1538.99441	-0.00766
1537.06585	-0.00784
1535.13729	-0.00791
1533.20872	-0.00791
1531.28016	-0.00795
1529.35159	-0.00796
1527.42303	-0.00789
1525.49446	-0.00779
1523.56590	-0.00767
1521.63733	-0.00759
1519.70877	-0.00760
1517.78021	-0.00766
1515.85164	-0.00772
1513.92308	-0.00779
1511.99451	-0.00782
1510.06595	-0.00777
1508.13738	-0.00767
1506.20882	-0.00764
1504.28025	-0.00778
1502.35169	-0.00789
1500.42313	-0.00789
1498.49456	-0.00781
1496.56600	-0.00777
1494.63743	-0.00781
1492.70887	-0.00784
1490.78030	-0.00784
1488.85174	-0.00785
1486.92317	-0.00790
1484.99461	-0.00795
1483.06605	-0.00800
1481.13748	-0.00803
1479.20892	-0.00805
1477.28035	-0.00805
1475.35179	-0.00802
1473.42322	-0.00801
1471.49466	-0.00810
1469.56610	-0.00822
1467.63753	-0.00828
1465.70897	-0.00831
1463.78040	-0.00840
1461.85184	-0.00851
1459.92327	-0.00856
1457.99471	-0.00860
1456.06614	-0.00882
1454.13758	-0.00921
1452.20902	-0.00956
1450.28045	-0.00981
1448.35189	-0.01000
1446.42332	-0.01024
1444.49476	-0.01049
1442.56619	-0.01057
1440.63763	-0.01051
1438.70906	-0.01053
1436.78050	-0.01088
1434.85194	-0.01134
1432.92337	-0.01138
1430.99481	-0.01093
1429.06624	-0.01048
1427.13768	-0.01029
1425.20911	-0.01029
1423.28055	-0.01042
1421.35198	-0.01068
1419.42342	-0.01099
1417.49486	-0.01115
1415.56629	-0.01105
1413.63773	-0.01068
1411.70916	-0.01015
1409.78060	-0.00956
1407.85203	-0.00907
1405.92347	-0.00872
1403.99490	-0.00852
1402.06634	-0.00840
1400.13778	-0.00829
1398.20921	-0.00820
1396.28065	-0.00814
1394.35208	-0.00812
1392.42352	-0.00812
1390.49495	-0.00812
1388.56639	-0.00810
1386.63782	-0.00810
1384.70926	-0.00814
1382.78070	-0.00817
1380.85213	-0.00822
1378.92357	-0.00830
1376.99500	-0.00843
1375.06644	-0.00864
1373.13787	-0.00892
1371.20931	-0.00916
1369.28074	-0.00942
1367.35218	-0.00983
1365.42362	-0.01027
1363.49505	-0.01050
1361.56649	-0.01049
1359.63792	-0.01023
1357.70936	-0.00963
1355.78079	-0.00891
1353.85223	-0.00840
1351.92366	-0.00816
1349.99510	-0.00808
1348.06654	-0.00803
1346.13797	-0.00799
1344.20941	-0.00796
1342.28084	-0.00794
1340.35228	-0.00794
1338.42371	-0.00799
1336.49515	-0.00817
1334.56659	-0.00856
1332.63802	-0.00914
1330.70946	-0.00979
1328.78089	-0.01039
1326.85233	-0.01098
1324.92376	-0.01150
1322.99520	-0.01184
1321.06663	-0.01192
1319.13807	-0.01184
1317.20951	-0.01171
1315.28094	-0.01164
1313.35238	-0.01173
1311.42381	-0.01199
1309.49525	-0.01238
1307.56668	-0.01304
1305.63812	-0.01410
1303.70955	-0.01475
1301.78099	-0.01381
1299.85243	-0.01167
1297.92386	-0.00985
1295.99530	-0.00897
1294.06673	-0.00872
1292.13817	-0.00875
1290.20960	-0.00886
1288.28104	-0.00892
1286.35247	-0.00889
1284.42391	-0.00879
1282.49535	-0.00866
1280.56678	-0.00855
1278.63822	-0.00845
1276.70965	-0.00838
1274.78109	-0.00832
1272.85252	-0.00827
1270.92396	-0.00823
1268.99539	-0.00820
1267.06683	-0.00816
1265.13827	-0.00812
1263.20970	-0.00808
1261.28114	-0.00805
1259.35257	-0.00803
1257.42401	-0.00802
1255.49544	-0.00801
1253.56688	-0.00800
1251.63831	-0.00800
1249.70975	-0.00800
1247.78119	-0.00800
1245.85262	-0.00800
1243.92406	-0.00799
1241.99549	-0.00799
1240.06693	-0.00797
1238.13836	-0.00795
1236.20980	-0.00792
1234.28123	-0.00789
1232.35267	-0.00788
1230.42411	-0.00789
1228.49554	-0.00788
1226.56698	-0.00787
1224.63841	-0.00785
1222.70985	-0.00784
1220.78128	-0.00783
1218.85272	-0.00783
1216.92415	-0.00781
1214.99559	-0.00779
1213.06703	-0.00778
1211.13846	-0.00778
1209.20990	-0.00779
1207.28133	-0.00779
1205.35277	-0.00778
1203.42420	-0.00776
1201.49564	-0.00775
1199.56708	-0.00777
1197.63851	-0.00778
1195.70995	-0.00778
1193.78138	-0.00779
1191.85282	-0.00781
1189.92425	-0.00782
1187.99569	-0.00784
1186.06712	-0.00785
1184.13856	-0.00786
1182.21000	-0.00787
1180.28143	-0.00788
1178.35287	-0.00788
1176.42430	-0.00788
1174.49574	-0.00788
1172.56717	-0.00788
1170.63861	-0.00787
1168.71004	-0.00788
1166.78148	-0.00789
1164.85292	-0.00790
1162.92435	-0.00791
1160.99579	-0.00792
1159.06722	-0.00792
1157.13866	-0.00791
1155.21009	-0.00791
1153.28153	-0.00792
1151.35296	-0.00793
1149.42440	-0.00794
1147.49584	-0.00797
1145.56727	-0.00799
1143.63871	-0.00801
1141.71014	-0.00803
1139.78158	-0.00803
1137.85301	-0.00802
1135.92445	-0.00802
1133.99588	-0.00802
1132.06732	-0.00803
1130.13876	-0.00804
1128.21019	-0.00807
1126.28163	-0.00809
1124.35306	-0.00811
1122.42450	-0.00812
1120.49593	-0.00811
1118.56737	-0.00811
1116.63880	-0.00812
1114.71024	-0.00814
1112.78168	-0.00815
1110.85311	-0.00815
1108.92455	-0.00814
1106.99598	-0.00814
1105.06742	-0.00813
1103.13885	-0.00812
1101.21029	-0.00810
1099.28172	-0.00809
1097.35316	-0.00810
1095.42460	-0.00812
1093.49603	-0.00814
1091.56747	-0.00816
1089.63890	-0.00817
1087.71034	-0.00817
1085.78177	-0.00816
1083.85321	-0.00815
1081.92464	-0.00816
1079.99608	-0.00818
1078.06752	-0.00819
1076.13895	-0.00820
1074.21039	-0.00820
1072.28182	-0.00820
1070.35326	-0.00822
1068.42469	-0.00828
1066.49613	-0.00838
1064.56756	-0.00854
1062.63900	-0.00885
1060.71044	-0.00952
1058.78187	-0.01055
1056.85331	-0.01133
1054.92474	-0.01122
1052.99618	-0.01043
1051.06761	-0.00961
1049.13905	-0.00907
1047.21049	-0.00878
1045.28192	-0.00861
1043.35336	-0.00851
1041.42479	-0.00845
1039.49623	-0.00846
1037.56766	-0.00852
1035.63910	-0.00862
1033.71053	-0.00885
1031.78197	-0.00926
1029.85341	-0.00975
1027.92484	-0.01001
1025.99628	-0.00996
1024.06771	-0.00970
1022.13915	-0.00938
1020.21058	-0.00908
1018.28202	-0.00885
1016.35345	-0.00870
1014.42489	-0.00859
1012.49633	-0.00852
1010.56776	-0.00847
1008.63920	-0.00844
1006.71063	-0.00844
1004.78207	-0.00843
1002.85350	-0.00842
1000.92494	-0.00846
998.99637	-0.00855
997.06781	-0.00864
995.13925	-0.00873
993.21068	-0.00887
991.28212	-0.00904
989.35355	-0.00923
987.42499	-0.00947
985.49642	-0.00983
983.56786	-0.01030
981.63929	-0.01079
979.71073	-0.01112
977.78217	-0.01115
975.85360	-0.01098
973.92504	-0.01084
971.99647	-0.01094
970.06791	-0.01140
968.13934	-0.01223
966.21078	-0.01335
964.28221	-0.01465
962.35365	-0.01605
960.42509	-0.01755
958.49652	-0.01902
956.56796	-0.02011
954.63939	-0.02038
952.71083	-0.01968
950.78226	-0.01818
948.85370	-0.01632
946.92513	-0.01449
944.99657	-0.01293
943.06801	-0.01169
941.13944	-0.01077
939.21088	-0.01010
937.28231	-0.00960
935.35375	-0.00925
933.42518	-0.00903
931.49662	-0.00888
929.56805	-0.00876
927.63949	-0.00868
925.71093	-0.00864
923.78236	-0.00862
921.85380	-0.00858
919.92523	-0.00851
917.99667	-0.00843
916.06810	-0.00835
914.13954	-0.00829
912.21098	-0.00828
910.28241	-0.00831
908.35385	-0.00835
906.42528	-0.00837
904.49672	-0.00838
902.56815	-0.00843
900.63959	-0.00847
898.71102	-0.00843
896.78246	-0.00832
894.85390	-0.00820
892.92533	-0.00813
890.99677	-0.00812
889.06820	-0.00810
887.13964	-0.00809
885.21107	-0.00810
883.28251	-0.00809
881.35394	-0.00806
879.42538	-0.00805
877.49682	-0.00805
875.56825	-0.00803
873.63969	-0.00795
871.71112	-0.00788
869.78256	-0.00787
867.85399	-0.00791
865.92543	-0.00795
863.99686	-0.00798
862.06830	-0.00799
860.13974	-0.00798
858.21117	-0.00797
856.28261	-0.00796
854.35404	-0.00794
852.42548	-0.00793
850.49691	-0.00793
848.56835	-0.00792
846.63978	-0.00790
844.71122	-0.00791
842.78266	-0.00795
840.85409	-0.00797
838.92553	-0.00796
836.99696	-0.00794
835.06840	-0.00794
833.13983	-0.00797
831.21127	-0.00801
829.28270	-0.00802
827.35414	-0.00802
825.42558	-0.00802
823.49701	-0.00800
821.56845	-0.00797
819.63988	-0.00791
817.71132	-0.00787
815.78275	-0.00788
813.85419	-0.00789
811.92562	-0.00791
809.99706	-0.00793
808.06850	-0.00794
806.13993	-0.00792
804.21137	-0.00794
802.28280	-0.00800
800.35424	-0.00806
798.42567	-0.00808
796.49711	-0.00804
794.56854	-0.00798
792.63998	-0.00797
790.71142	-0.00802
788.78285	-0.00806
786.85429	-0.00800
784.92572	-0.00790
782.99716	-0.00789
781.06859	-0.00792
779.14003	-0.00792
777.21147	-0.00795
775.28290	-0.00800
773.35434	-0.00802
771.42577	-0.00803
769.49721	-0.00805
767.56864	-0.00805
765.64008	-0.00801
763.71151	-0.00796
761.78295	-0.00789
759.85439	-0.00784
757.92582	-0.00789
755.99726	-0.00799
754.06869	-0.00802
752.14013	-0.00796
750.21156	-0.00809
748.28300	-0.00843
746.35443	-0.00873
744.42587	-0.00885
742.49731	-0.00888
740.56874	-0.00893
738.64018	-0.00897
736.71161	-0.00909
734.78305	-0.00924
732.85448	-0.00916
730.92592	-0.00887
728.99735	-0.00902
727.06879	-0.00980
725.14023	-0.01080
723.21166	-0.00980
721.28310	-0.00399
719.35453	0.00004
717.42597	-0.00483
715.49740	-0.01147
713.56884	-0.01342
711.64027	-0.01334
709.71171	-0.01356
707.78315	-0.01406
705.85458	-0.01436
703.92602	-0.01450
701.99745	-0.01478
700.06889	-0.01522
698.14032	-0.01544
696.21176	-0.01538
694.28319	-0.01544
692.35463	-0.01563
690.42607	-0.01571
688.49750	-0.01581
686.56894	-0.01593
684.64037	-0.01592
682.71181	-0.01590
680.78324	-0.01573
678.85468	-0.01553
676.92611	-0.01568
674.99755	-0.01598
673.06899	-0.01603
671.14042	-0.01587
669.21186	-0.01563
667.28329	-0.01527
665.35473	-0.01502
663.42616	-0.01514
661.49760	-0.01550
659.56903	-0.01575
657.64047	-0.01561
655.71191	-0.01534
653.78334	-0.01527
651.85478	-0.01548
649.92621	-0.01575
647.99765	-0.01593
646.06908	-0.01606
644.14052	-0.01616
642.21195	-0.01618
640.28339	-0.01584
638.35483	-0.01541
636.42626	-0.01549
634.49770	-0.01577
632.56913	-0.01567
630.64057	-0.01534
628.71200	-0.01512
626.78344	-0.01499
624.85488	-0.01499
622.92631	-0.01513
620.99775	-0.01533
619.06918	-0.01555
617.14062	-0.01570
615.21205	-0.01569
613.28349	-0.01558
611.35492	-0.01551
609.42636	-0.01548
607.49780	-0.01549
605.56923	-0.01564
603.64067	-0.01587
601.71210	-0.01592
599.78354	-0.01570
597.85497	-0.01553
595.92641	-0.01567
593.99784	-0.01582
592.06928	-0.01580
590.14072	-0.01584
588.21215	-0.01588
586.28359	-0.01574
584.35502	-0.01556
582.42646	-0.01554
580.49789	-0.01553
578.56933	-0.01540
576.64076	-0.01535
574.71220	-0.01541
572.78364	-0.01545
570.85507	-0.01542
568.92651	-0.01532
566.99794	-0.01529
565.06938	-0.01538
563.14081	-0.01547
561.21225	-0.01553
559.28368	-0.01564
557.35512	-0.01579
555.42656	-0.01592
553.49799	-0.01597
551.56943	-0.01593
549.64086	-0.01580
547.71230	-0.01568
545.78373	-0.01566
543.85517	-0.01566
541.92660	-0.01568
539.99804	-0.01567
538.06948	-0.01557
536.14091	-0.01552
534.21235	-0.01566
532.28378	-0.01580
530.35522	-0.01574
528.42665	-0.01571
526.49809	-0.01597
524.56952	-0.01612
522.64096	-0.01587
520.71240	-0.01565
518.78383	-0.01579
516.85527	-0.01598
514.92670	-0.01595
512.99814	-0.01585
511.06957	-0.01600
509.14101	-0.01622
507.21244	-0.01622
505.28388	-0.01606
503.35532	-0.01580
501.42675	-0.01545
499.49819	-0.01519
497.56962	-0.01517
495.64106	-0.01539
493.71249	-0.01569
491.78393	-0.01579
489.85537	-0.01565
487.92680	-0.01545
485.99824	-0.01536
484.06967	-0.01550
482.14111	-0.01570
480.21254	-0.01569
478.28398	-0.01536
476.35541	-0.01477
474.42685	-0.01457
472.49829	-0.01516
470.56972	-0.01575
468.64116	-0.01582
466.71259	-0.01571
464.78403	-0.01573
462.85546	-0.01598
460.92690	-0.01634
458.99833	-0.01636
457.06977	-0.01574
455.14121	-0.01532
453.21264	-0.01567
451.28408	-0.01598
449.35551	-0.01601
447.42695	-0.01639
445.49838	-0.01702
443.56982	-0.01732
441.64125	-0.01715
439.71269	-0.01657
437.78413	-0.01569
435.85556	-0.01503
433.92700	-0.01487
431.99843	-0.01505
430.06987	-0.01532
428.14130	-0.01555
426.21274	-0.01580
424.28417	-0.01607
422.35561	-0.01637
420.42705	-0.01662
418.49848	-0.01643
416.56992	-0.01587
414.64135	-0.01563
412.71279	-0.01582
410.78422	-0.01597
408.85566	-0.01584
406.92709	-0.01562
404.99853	-0.01558
403.06997	-0.01566
401.14140	-0.01560
399.21284	-0.01542
397.28427	-0.01539
395.35571	-0.01558
393.42714	-0.01577
391.49858	-0.01574
389.57001	-0.01560
387.64145	-0.01550
385.71289	-0.01540
383.78432	-0.01537
381.85576	-0.01545
379.92719	-0.01542
377.99863	-0.01527
376.07006	-0.01524
374.14150	-0.01529
372.21293	-0.01530
370.28437	-0.01542
368.35581	-0.01560
