3997.91406	-0.00085
3995.98550	-0.00088
3994.05693	-0.00087
3992.12837	-0.00084
3990.19980	-0.00083
3988.27124	-0.00085
3986.34268	-0.00087
3984.41411	-0.00088
3982.48555	-0.00086
3980.55698	-0.00084
3978.62842	-0.00083
3976.69985	-0.00084
3974.77129	-0.00083
3972.84272	-0.00083
3970.91416	-0.00084
3968.98560	-0.00086
3967.05703	-0.00085
3965.12847	-0.00083
3963.19990	-0.00082
3961.27134	-0.00081
3959.34277	-0.00083
3957.41421	-0.00085
3955.48564	-0.00085
3953.55708	-0.00082
3951.62852	-0.00080
3949.69995	-0.00081
3947.77139	-0.00083
3945.84282	-0.00083
3943.91426	-0.00082
3941.98569	-0.00082
3940.05713	-0.00084
3938.12856	-0.00084
3936.20000	-0.00080
3934.27144	-0.00077
3932.34287	-0.00077
3930.41431	-0.00081
3928.48574	-0.00086
3926.55718	-0.00087
3924.62861	-0.00087
3922.70005	-0.00087
3920.77148	-0.00087
3918.84292	-0.00085
3916.91436	-0.00084
3914.98579	-0.00085
3913.05723	-0.00086
3911.12866	-0.00085
3909.20010	-0.00082
3907.27153	-0.00077
3905.34297	-0.00068
3903.41440	-0.00064
3901.48584	-0.00066
3899.55728	-0.00072
3897.62871	-0.00080
3895.70015	-0.00085
3893.77158	-0.00081
3891.84302	-0.00076
3889.91445	-0.00077
3887.98589	-0.00075
3886.05733	-0.00072
3884.12876	-0.00075
3882.20020	-0.00079
3880.27163	-0.00081
3878.34307	-0.00086
3876.41450	-0.00087
3874.48594	-0.00083
3872.55737	-0.00075
3870.62881	-0.00068
3868.70025	-0.00067
3866.77168	-0.00068
3864.84312	-0.00067
3862.91455	-0.00073
3860.98599	-0.00079
3859.05742	-0.00079
3857.12886	-0.00062
3855.20029	-0.00033
3853.27173	-0.00027
3851.34317	-0.00055
3849.41460	-0.00081
3847.48604	-0.00089
3845.55747	-0.00086
3843.62891	-0.00081
3841.70034	-0.00072
3839.77178	-0.00059
3837.84321	-0.00056
3835.91465	-0.00067
3833.98609	-0.00076
3832.05752	-0.00080
3830.12896	-0.00084
3828.20039	-0.00089
3826.27183	-0.00091
3824.34326	-0.00084
3822.41470	-0.00071
3820.48613	-0.00066
3818.55757	-0.00065
3816.62901	-0.00066
3814.70044	-0.00077
3812.77188	-0.00092
3810.84331	-0.00094
3808.91475	-0.00083
3806.98618	-0.00074
3805.05762	-0.00072
3803.12905	-0.00065
3801.20049	-0.00063
3799.27193	-0.00074
3797.34336	-0.00085
3795.41480	-0.00090
3793.48623	-0.00094
3791.55767	-0.00097
3789.62910	-0.00097
3787.70054	-0.00095
3785.77197	-0.00095
3783.84341	-0.00096
3781.91485	-0.00094
3779.98628	-0.00092
3778.05772	-0.00094
3776.12915	-0.00099
3774.20059	-0.00099
3772.27202	-0.00093
3770.34346	-0.00088
3768.41489	-0.00088
3766.48633	-0.00092
3764.55777	-0.00096
3762.62920	-0.00095
3760.70064	-0.00089
3758.77207	-0.00087
3756.84351	-0.00089
3754.91494	-0.00080
3752.98638	-0.00059
3751.05781	-0.00045
3749.12925	-0.00050
3747.20069	-0.00051
3745.27212	-0.00044
3743.34356	-0.00054
3741.41499	-0.00076
3739.48643	-0.00081
3737.55786	-0.00072
3735.62930	-0.00066
3733.70074	-0.00070
3731.77217	-0.00080
3729.84361	-0.00089
3727.91504	-0.00092
3725.98648	-0.00093
3724.05791	-0.00093
3722.12935	-0.00094
3720.20078	-0.00096
3718.27222	-0.00102
3716.34366	-0.00103
3714.41509	-0.00093
3712.48653	-0.00082
3710.55796	-0.00083
3708.62940	-0.00093
3706.70083	-0.00102
3704.77227	-0.00103
3702.84370	-0.00100
3700.91514	-0.00101
3698.98658	-0.00105
3697.05801	-0.00108
3695.12945	-0.00106
3693.20088	-0.00098
3691.27232	-0.00083
3689.34375	-0.00074
3687.41519	-0.00084
3685.48662	-0.00100
3683.55806	-0.00105
3681.62950	-0.00102
3679.70093	-0.00093
3677.77237	-0.00077
3675.84380	-0.00067
3673.91524	-0.00073
3671.98667	-0.00078
3670.05811	-0.00081
3668.12954	-0.00094
3666.20098	-0.00107
3664.27242	-0.00110
3662.34385	-0.00109
3660.41529	-0.00107
3658.48672	-0.00100
3656.55816	-0.00094
3654.62959	-0.00093
3652.70103	-0.00086
3650.77246	-0.00074
3648.84390	-0.00073
3646.91534	-0.00087
3644.98677	-0.00103
3643.05821	-0.00111
3641.12964	-0.00114
3639.20108	-0.00116
3637.27251	-0.00116
3635.34395	-0.00113
3633.41538	-0.00107
3631.48682	-0.00094
3629.55826	-0.00082
3627.62969	-0.00089
3625.70113	-0.00105
3623.77256	-0.00111
3621.84400	-0.00104
3619.91543	-0.00098
3617.98687	-0.00101
3616.05830	-0.00108
3614.12974	-0.00109
3612.20118	-0.00106
3610.27261	-0.00104
3608.34405	-0.00107
3606.41548	-0.00114
3604.48692	-0.00119
3602.55835	-0.00120
3600.62979	-0.00118
3598.70123	-0.00116
3596.77266	-0.00115
3594.84410	-0.00115
3592.91553	-0.00115
3590.98697	-0.00112
3589.05840	-0.00107
3587.12984	-0.00108
3585.20127	-0.00115
3583.27271	-0.00120
3581.34415	-0.00120
3579.41558	-0.00122
3577.48702	-0.00125
3575.55845	-0.00125
3573.62989	-0.00121
3571.70132	-0.00116
3569.77276	-0.00111
3567.84419	-0.00109
3565.91563	-0.00112
3563.98707	-0.00117
3562.05850	-0.00119
3560.12994	-0.00121
3558.20137	-0.00124
3556.27281	-0.00126
3554.34424	-0.00124
3552.41568	-0.00123
3550.48711	-0.00123
3548.55855	-0.00122
3546.62999	-0.00122
3544.70142	-0.00125
3542.77286	-0.00127
3540.84429	-0.00129
3538.91573	-0.00131
3536.98716	-0.00131
3535.05860	-0.00132
3533.13003	-0.00133
3531.20147	-0.00132
3529.27291	-0.00129
3527.34434	-0.00126
3525.41578	-0.00125
3523.48721	-0.00127
3521.55865	-0.00131
3519.63008	-0.00134
3517.70152	-0.00134
3515.77295	-0.00132
3513.84439	-0.00131
3511.91583	-0.00132
3509.98726	-0.00135
3508.05870	-0.00137
3506.13013	-0.00136
3504.20157	-0.00133
3502.27300	-0.00134
3500.34444	-0.00137
3498.41587	-0.00139
3496.48731	-0.00138
3494.55875	-0.00137
3492.63018	-0.00137
3490.70162	-0.00137
3488.77305	-0.00137
3486.84449	-0.00137
3484.91592	-0.00138
3482.98736	-0.00137
3481.05879	-0.00135
3479.13023	-0.00138
3477.20167	-0.00143
3475.27310	-0.00146
3473.34454	-0.00145
3471.41597	-0.00144
3469.48741	-0.00142
3467.55884	-0.00142
3465.63028	-0.00144
3463.70171	-0.00147
3461.77315	-0.00148
3459.84459	-0.00147
3457.91602	-0.00145
3455.98746	-0.00145
3454.05889	-0.00146
3452.13033	-0.00145
3450.20176	-0.00144
3448.27320	-0.00144
3446.34464	-0.00146
3444.41607	-0.00149
3442.48751	-0.00152
3440.55894	-0.00153
3438.63038	-0.00153
3436.70181	-0.00151
3434.77325	-0.00152
3432.84468	-0.00156
3430.91612	-0.00161
3428.98756	-0.00164
3427.05899	-0.00163
3425.13043	-0.00162
3423.20186	-0.00162
3421.27330	-0.00162
3419.34473	-0.00160
3417.41617	-0.00158
3415.48760	-0.00155
3413.55904	-0.00154
3411.63048	-0.00154
3409.70191	-0.00155
3407.77335	-0.00155
3405.84478	-0.00154
3403.91622	-0.00155
3401.98765	-0.00156
3400.05909	-0.00157
3398.13052	-0.00157
3396.20196	-0.00157
3394.27340	-0.00157
3392.34483	-0.00157
3390.41627	-0.00157
3388.48770	-0.00158
3386.55914	-0.00159
3384.63057	-0.00158
3382.70201	-0.00158
3380.77344	-0.00158
3378.84488	-0.00158
3376.91632	-0.00157
3374.98775	-0.00159
3373.05919	-0.00161
3371.13062	-0.00162
3369.20206	-0.00161
3367.27349	-0.00162
3365.34493	-0.00163
3363.41636	-0.00161
3361.48780	-0.00158
3359.55924	-0.00157
3357.63067	-0.00157
3355.70211	-0.00159
3353.77354	-0.00163
3351.84498	-0.00164
3349.91641	-0.00164
3347.98785	-0.00164
3346.05928	-0.00165
3344.13072	-0.00165
3342.20216	-0.00164
3340.27359	-0.00161
3338.34503	-0.00161
3336.41646	-0.00164
3334.48790	-0.00167
3332.55933	-0.00168
3330.63077	-0.00166
3328.70220	-0.00165
3326.77364	-0.00165
3324.84508	-0.00165
3322.91651	-0.00167
3320.98795	-0.00168
3319.05938	-0.00167
3317.13082	-0.00165
3315.20225	-0.00165
3313.27369	-0.00168
3311.34513	-0.00169
3309.41656	-0.00166
3307.48800	-0.00164
3305.55943	-0.00166
3303.63087	-0.00171
3301.70230	-0.00173
3299.77374	-0.00171
3297.84517	-0.00167
3295.91661	-0.00166
3293.98805	-0.00167
3292.05948	-0.00168
3290.13092	-0.00169
3288.20235	-0.00170
3286.27379	-0.00171
3284.34522	-0.00172
3282.41666	-0.00172
3280.48809	-0.00172
3278.55953	-0.00171
3276.63097	-0.00172
3274.70240	-0.00173
3272.77384	-0.00174
3270.84527	-0.00175
3268.91671	-0.00177
3266.98814	-0.00177
3265.05958	-0.00177
3263.13101	-0.00178
3261.20245	-0.00179
3259.27389	-0.00181
3257.34532	-0.00180
3255.41676	-0.00179
3253.48819	-0.00180
3251.55963	-0.00182
3249.63106	-0.00181
3247.70250	-0.00181
3245.77393	-0.00182
3243.84537	-0.00182
3241.91681	-0.00182
3239.98824	-0.00183
3238.05968	-0.00183
3236.13111	-0.00183
3234.20255	-0.00184
3232.27398	-0.00186
3230.34542	-0.00186
3228.41685	-0.00186
3226.48829	-0.00186
3224.55973	-0.00187
3222.63116	-0.00189
3220.70260	-0.00191
3218.77403	-0.00192
3216.84547	-0.00191
3214.91690	-0.00190
3212.98834	-0.00191
3211.05977	-0.00192
3209.13121	-0.00193
3207.20265	-0.00195
3205.27408	-0.00196
3203.34552	-0.00196
3201.41695	-0.00198
3199.48839	-0.00198
3197.55982	-0.00198
3195.63126	-0.00199
3193.70269	-0.00201
3191.77413	-0.00202
3189.84557	-0.00201
3187.91700	-0.00203
3185.98844	-0.00205
3184.05987	-0.00208
3182.13131	-0.00209
3180.20274	-0.00208
3178.27418	-0.00207
3176.34562	-0.00209
3174.41705	-0.00212
3172.48849	-0.00212
3170.55992	-0.00211
3168.63136	-0.00209
3166.70279	-0.00211
3164.77423	-0.00213
3162.84566	-0.00215
3160.91710	-0.00217
3158.98854	-0.00219
3157.05997	-0.00219
3155.13141	-0.00218
3153.20284	-0.00219
3151.27428	-0.00220
3149.34571	-0.00221
3147.41715	-0.00222
3145.48858	-0.00224
3143.56002	-0.00227
3141.63146	-0.00228
3139.70289	-0.00227
3137.77433	-0.00226
3135.84576	-0.00227
3133.91720	-0.00228
3131.98863	-0.00230
3130.06007	-0.00233
3128.13150	-0.00236
3126.20294	-0.00238
3124.27438	-0.00240
3122.34581	-0.00241
3120.41725	-0.00241
3118.48868	-0.00241
3116.56012	-0.00241
3114.63155	-0.00242
3112.70299	-0.00244
3110.77442	-0.00245
3108.84586	-0.00246
3106.91730	-0.00247
3104.98873	-0.00247
3103.06017	-0.00249
3101.13160	-0.00251
3099.20304	-0.00254
3097.27447	-0.00255
3095.34591	-0.00257
3093.41734	-0.00260
3091.48878	-0.00260
3089.56022	-0.00260
3087.63165	-0.00259
3085.70309	-0.00260
3083.77452	-0.00260
3081.84596	-0.00260
3079.91739	-0.00258
3077.98883	-0.00258
3076.06026	-0.00258
3074.13170	-0.00260
3072.20314	-0.00261
3070.27457	-0.00262
3068.34601	-0.00261
3066.41744	-0.00261
3064.48888	-0.00261
3062.56031	-0.00261
3060.63175	-0.00261
3058.70318	-0.00264
3056.77462	-0.00267
3054.84606	-0.00269
3052.91749	-0.00270
3050.98893	-0.00271
3049.06036	-0.00275
3047.13180	-0.00279
3045.20323	-0.00284
3043.27467	-0.00288
3041.34610	-0.00291
3039.41754	-0.00296
3037.48898	-0.00302
3035.56041	-0.00307
3033.63185	-0.00309
3031.70328	-0.00311
3029.77472	-0.00313
3027.84615	-0.00314
3025.91759	-0.00313
3023.98903	-0.00312
3022.06046	-0.00310
3020.13190	-0.00307
3018.20333	-0.00304
3016.27477	-0.00302
3014.34620	-0.00303
3012.41764	-0.00305
3010.48907	-0.00307
3008.56051	-0.00308
3006.63195	-0.00311
3004.70338	-0.00315
3002.77482	-0.00318
3000.84625	-0.00322
2998.91769	-0.00325
2996.98912	-0.00327
2995.06056	-0.00328
2993.13199	-0.00329
2991.20343	-0.00329
2989.27487	-0.00329
2987.34630	-0.00329
2985.41774	-0.00329
2983.48917	-0.00330
2981.56061	-0.00333
2979.63204	-0.00338
2977.70348	-0.00342
2975.77491	-0.00344
2973.84635	-0.00344
2971.91779	-0.00344
2969.98922	-0.00344
2968.06066	-0.00342
2966.13209	-0.00339
2964.20353	-0.00336
2962.27496	-0.00337
2960.34640	-0.00338
2958.41783	-0.00338
2956.48927	-0.00339
2954.56071	-0.00341
2952.63214	-0.00343
2950.70358	-0.00345
2948.77501	-0.00348
2946.84645	-0.00354
2944.91788	-0.00363
2942.98932	-0.00370
2941.06075	-0.00372
2939.13219	-0.00373
2937.20363	-0.00373
2935.27506	-0.00375
2933.34650	-0.00379
2931.41793	-0.00383
2929.48937	-0.00387
2927.56080	-0.00390
2925.63224	-0.00393
2923.70367	-0.00395
2921.77511	-0.00394
2919.84655	-0.00391
2917.91798	-0.00388
2915.98942	-0.00385
2914.06085	-0.00379
2912.13229	-0.00373
2910.20372	-0.00368
2908.27516	-0.00365
2906.34659	-0.00363
2904.41803	-0.00361
2902.48947	-0.00357
2900.56090	-0.00352
2898.63234	-0.00347
2896.70377	-0.00343
2894.77521	-0.00340
2892.84664	-0.00336
2890.91808	-0.00333
2888.98952	-0.00329
2887.06095	-0.00324
2885.13239	-0.00320
2883.20382	-0.00318
2881.27526	-0.00318
2879.34669	-0.00319
2877.41813	-0.00319
2875.48956	-0.00318
2873.56100	-0.00318
2871.63244	-0.00319
2869.70387	-0.00320
2867.77531	-0.00320
2865.84674	-0.00318
2863.91818	-0.00317
2861.98961	-0.00318
2860.06105	-0.00319
2858.13248	-0.00316
2856.20392	-0.00313
2854.27536	-0.00312
2852.34679	-0.00311
2850.41823	-0.00308
2848.48966	-0.00305
2846.56110	-0.00303
2844.63253	-0.00301
2842.70397	-0.00297
2840.77540	-0.00293
2838.84684	-0.00292
2836.91828	-0.00292
2834.98971	-0.00291
2833.06115	-0.00289
2831.13258	-0.00289
2829.20402	-0.00290
2827.27545	-0.00294
2825.34689	-0.00298
2823.41832	-0.00303
2821.48976	-0.00308
2819.56120	-0.00311
2817.63263	-0.00315
2815.70407	-0.00319
2813.77550	-0.00319
2811.84694	-0.00315
2809.91837	-0.00312
2807.98981	-0.00310
2806.06124	-0.00311
2804.13268	-0.00312
2802.20412	-0.00311
2800.27555	-0.00309
2798.34699	-0.00308
2796.41842	-0.00308
2794.48986	-0.00307
2792.56129	-0.00305
2790.63273	-0.00305
2788.70416	-0.00305
2786.77560	-0.00305
2784.84704	-0.00304
2782.91847	-0.00302
2780.98991	-0.00300
2779.06134	-0.00299
2777.13278	-0.00299
2775.20421	-0.00300
2773.27565	-0.00298
2771.34708	-0.00296
2769.41852	-0.00296
2767.48996	-0.00297
2765.56139	-0.00299
2763.63283	-0.00302
2761.70426	-0.00304
2759.77570	-0.00306
2757.84713	-0.00310
2755.91857	-0.00316
2753.99001	-0.00323
2752.06144	-0.00329
2750.13288	-0.00331
2748.20431	-0.00331
2746.27575	-0.00332
2744.34718	-0.00332
2742.41862	-0.00331
2740.49005	-0.00329
2738.56149	-0.00328
2736.63293	-0.00326
2734.70436	-0.00324
2732.77580	-0.00322
2730.84723	-0.00322
2728.91867	-0.00322
2726.99010	-0.00321
2725.06154	-0.00321
2723.13297	-0.00322
2721.20441	-0.00324
2719.27585	-0.00327
2717.34728	-0.00331
2715.41872	-0.00337
2713.49015	-0.00344
2711.56159	-0.00349
2709.63302	-0.00351
2707.70446	-0.00352
2705.77589	-0.00353
2703.84733	-0.00354
2701.91877	-0.00354
2699.99020	-0.00356
2698.06164	-0.00363
2696.13307	-0.00373
2694.20451	-0.00382
2692.27594	-0.00387
2690.34738	-0.00388
2688.41881	-0.00386
2686.49025	-0.00380
2684.56169	-0.00375
2682.63312	-0.00369
2680.70456	-0.00364
2678.77599	-0.00362
2676.84743	-0.00361
2674.91886	-0.00360
2672.99030	-0.00356
2671.06173	-0.00350
2669.13317	-0.00344
2667.20461	-0.00338
2665.27604	-0.00332
2663.34748	-0.00327
2661.41891	-0.00324
2659.49035	-0.00323
2657.56178	-0.00325
2655.63322	-0.00327
2653.70465	-0.00330
2651.77609	-0.00334
2649.84753	-0.00344
2647.91896	-0.00359
2645.99040	-0.00379
2644.06183	-0.00396
2642.13327	-0.00408
2640.20470	-0.00409
2638.27614	-0.00400
2636.34757	-0.00385
2634.41901	-0.00369
2632.49045	-0.00355
2630.56188	-0.00345
2628.63332	-0.00336
2626.70475	-0.00329
2624.77619	-0.00322
2622.84762	-0.00318
2620.91906	-0.00313
2618.99049	-0.00308
2617.06193	-0.00302
2615.13337	-0.00298
2613.20480	-0.00296
2611.27624	-0.00294
2609.34767	-0.00292
2607.41911	-0.00290
2605.49054	-0.00288
2603.56198	-0.00288
2601.63342	-0.00288
2599.70485	-0.00288
2597.77629	-0.00290
2595.84772	-0.00291
2593.91916	-0.00293
2591.99059	-0.00297
2590.06203	-0.00301
2588.13346	-0.00307
2586.20490	-0.00318
2584.27634	-0.00336
2582.34777	-0.00351
2580.41921	-0.00356
2578.49064	-0.00351
2576.56208	-0.00340
2574.63351	-0.00328
2572.70495	-0.00318
2570.77638	-0.00311
2568.84782	-0.00304
2566.91926	-0.00298
2564.99069	-0.00291
2563.06213	-0.00285
2561.13356	-0.00282
2559.20500	-0.00280
2557.27643	-0.00278
2555.34787	-0.00276
2553.41930	-0.00276
2551.49074	-0.00275
2549.56218	-0.00273
2547.63361	-0.00272
2545.70505	-0.00272
2543.77648	-0.00270
2541.84792	-0.00268
2539.91935	-0.00266
2537.99079	-0.00267
2536.06222	-0.00267
2534.13366	-0.00266
2532.20510	-0.00264
2530.27653	-0.00262
2528.34797	-0.00261
2526.41940	-0.00260
2524.49084	-0.00259
2522.56227	-0.00259
2520.63371	-0.00261
2518.70514	-0.00261
2516.77658	-0.00261
2514.84802	-0.00260
2512.91945	-0.00259
2510.99089	-0.00258
2509.06232	-0.00258
2507.13376	-0.00258
2505.20519	-0.00257
2503.27663	-0.00258
2501.34806	-0.00259
2499.41950	-0.00259
2497.49094	-0.00260
2495.56237	-0.00260
2493.63381	-0.00259
2491.70524	-0.00259
2489.77668	-0.00259
2487.84811	-0.00257
2485.91955	-0.00255
2483.99098	-0.00256
2482.06242	-0.00257
2480.13386	-0.00256
2478.20529	-0.00256
2476.27673	-0.00257
2474.34816	-0.00258
2472.41960	-0.00257
2470.49103	-0.00256
2468.56247	-0.00256
2466.63391	-0.00257
2464.70534	-0.00259
2462.77678	-0.00260
2460.84821	-0.00260
2458.91965	-0.00259
2456.99108	-0.00258
2455.06252	-0.00256
2453.13395	-0.00255
2451.20539	-0.00256
2449.27683	-0.00257
2447.34826	-0.00257
2445.41970	-0.00255
2443.49113	-0.00254
2441.56257	-0.00253
2439.63400	-0.00252
2437.70544	-0.00254
2435.77687	-0.00257
2433.84831	-0.00258
2431.91975	-0.00258
2429.99118	-0.00258
2428.06262	-0.00258
2426.13405	-0.00257
2424.20549	-0.00255
2422.27692	-0.00255
2420.34836	-0.00254
2418.41979	-0.00255
2416.49123	-0.00255
2414.56267	-0.00254
2412.63410	-0.00252
2410.70554	-0.00250
2408.77697	-0.00249
2406.84841	-0.00249
2404.91984	-0.00250
2402.99128	-0.00251
2401.06271	-0.00252
2399.13415	-0.00253
2397.20559	-0.00254
2395.27702	-0.00255
2393.34846	-0.00254
2391.41989	-0.00253
2389.49133	-0.00250
2387.56276	-0.00248
2385.63420	-0.00248
2383.70563	-0.00249
2381.77707	-0.00251
2379.84851	-0.00251
2377.91994	-0.00252
2375.99138	-0.00254
2374.06281	-0.00257
2372.13425	-0.00259
2370.20568	-0.00259
2368.27712	-0.00260
2366.34855	-0.00261
2364.41999	-0.00263
2362.49143	-0.00264
2360.56286	-0.00264
2358.63430	-0.00264
2356.70573	-0.00263
2354.77717	-0.00260
2352.84860	-0.00257
2350.92004	-0.00254
2348.99147	-0.00254
2347.06291	-0.00254
2345.13435	-0.00256
2343.20578	-0.00259
2341.27722	-0.00261
2339.34865	-0.00263
2337.42009	-0.00265
2335.49152	-0.00265
2333.56296	-0.00264
2331.63440	-0.00262
2329.70583	-0.00260
2327.77727	-0.00259
2325.84870	-0.00258
2323.92014	-0.00257
2321.99157	-0.00257
2320.06301	-0.00258
2318.13444	-0.00258
2316.20588	-0.00256
2314.27732	-0.00254
2312.34875	-0.00253
2310.42019	-0.00254
2308.49162	-0.00255
2306.56306	-0.00254
2304.63449	-0.00254
2302.70593	-0.00254
2300.77736	-0.00252
2298.84880	-0.00250
2296.92024	-0.00250
2294.99167	-0.00251
2293.06311	-0.00251
2291.13454	-0.00251
2289.20598	-0.00248
2287.27741	-0.00247
2285.34885	-0.00248
2283.42028	-0.00250
2281.49172	-0.00250
2279.56316	-0.00249
2277.63459	-0.00248
2275.70603	-0.00248
2273.77746	-0.00248
2271.84890	-0.00249
2269.92033	-0.00251
2267.99177	-0.00252
2266.06320	-0.00251
2264.13464	-0.00252
2262.20608	-0.00254
2260.27751	-0.00255
2258.34895	-0.00254
2256.42038	-0.00253
2254.49182	-0.00252
2252.56325	-0.00251
2250.63469	-0.00250
2248.70612	-0.00249
2246.77756	-0.00248
2244.84900	-0.00246
2242.92043	-0.00245
2240.99187	-0.00246
2239.06330	-0.00246
2237.13474	-0.00246
2235.20617	-0.00245
2233.27761	-0.00246
2231.34904	-0.00246
2229.42048	-0.00245
2227.49192	-0.00244
2225.56335	-0.00244
2223.63479	-0.00244
2221.70622	-0.00245
2219.77766	-0.00247
2217.84909	-0.00249
2215.92053	-0.00250
2213.99196	-0.00251
2212.06340	-0.00250
2210.13484	-0.00247
2208.20627	-0.00246
2206.27771	-0.00245
2204.34914	-0.00246
2202.42058	-0.00248
2200.49201	-0.00249
2198.56345	-0.00249
2196.63488	-0.00249
2194.70632	-0.00249
2192.77776	-0.00248
2190.84919	-0.00247
2188.92063	-0.00246
2186.99206	-0.00247
2185.06350	-0.00250
2183.13493	-0.00252
2181.20637	-0.00252
2179.27781	-0.00250
2177.34924	-0.00249
2175.42068	-0.00248
2173.49211	-0.00248
2171.56355	-0.00248
2169.63498	-0.00248
2167.70642	-0.00248
2165.77785	-0.00247
2163.84929	-0.00247
2161.92073	-0.00248
2159.99216	-0.00249
2158.06360	-0.00249
2156.13503	-0.00248
2154.20647	-0.00248
2152.27790	-0.00249
2150.34934	-0.00251
2148.42077	-0.00251
2146.49221	-0.00249
2144.56365	-0.00248
2142.63508	-0.00248
2140.70652	-0.00248
2138.77795	-0.00250
2136.84939	-0.00250
2134.92082	-0.00250
2132.99226	-0.00250
2131.06369	-0.00250
2129.13513	-0.00250
2127.20657	-0.00250
2125.27800	-0.00250
2123.34944	-0.00249
2121.42087	-0.00249
2119.49231	-0.00250
2117.56374	-0.00250
2115.63518	-0.00250
2113.70661	-0.00250
2111.77805	-0.00249
2109.84949	-0.00248
2107.92092	-0.00248
2105.99236	-0.00249
2104.06379	-0.00250
2102.13523	-0.00250
2100.20666	-0.00249
2098.27810	-0.00248
2096.34953	-0.00247
2094.42097	-0.00247
2092.49241	-0.00247
2090.56384	-0.00247
2088.63528	-0.00248
2086.70671	-0.00250
2084.77815	-0.00251
2082.84958	-0.00252
2080.92102	-0.00252
2078.99245	-0.00252
2077.06389	-0.00251
2075.13533	-0.00251
2073.20676	-0.00250
2071.27820	-0.00249
2069.34963	-0.00248
2067.42107	-0.00248
2065.49250	-0.00248
2063.56394	-0.00250
2061.63537	-0.00252
2059.70681	-0.00252
2057.77825	-0.00250
2055.84968	-0.00250
2053.92112	-0.00250
2051.99255	-0.00250
2050.06399	-0.00249
2048.13542	-0.00249
2046.20686	-0.00251
2044.27830	-0.00251
2042.34973	-0.00250
2040.42117	-0.00250
2038.49260	-0.00251
2036.56404	-0.00252
2034.63547	-0.00251
2032.70691	-0.00249
2030.77834	-0.00248
2028.84978	-0.00248
2026.92122	-0.00247
2024.99265	-0.00248
2023.06409	-0.00249
2021.13552	-0.00251
2019.20696	-0.00252
2017.27839	-0.00251
2015.34983	-0.00249
2013.42126	-0.00250
2011.49270	-0.00252
2009.56414	-0.00253
2007.63557	-0.00253
2005.70701	-0.00254
2003.77844	-0.00254
2001.84988	-0.00254
1999.92131	-0.00255
1997.99275	-0.00255
1996.06418	-0.00255
1994.13562	-0.00254
1992.20706	-0.00253
1990.27849	-0.00254
1988.34993	-0.00254
1986.42136	-0.00256
1984.49280	-0.00258
1982.56423	-0.00258
1980.63567	-0.00256
1978.70710	-0.00254
1976.77854	-0.00254
1974.84998	-0.00255
1972.92141	-0.00255
1970.99285	-0.00253
1969.06428	-0.00253
1967.13572	-0.00254
1965.20715	-0.00255
1963.27859	-0.00256
1961.35002	-0.00257
1959.42146	-0.00257
1957.49290	-0.00257
1955.56433	-0.00256
1953.63577	-0.00254
1951.70720	-0.00253
1949.77864	-0.00253
1947.85007	-0.00253
1945.92151	-0.00252
1943.99294	-0.00250
1942.06438	-0.00251
1940.13582	-0.00253
1938.20725	-0.00255
1936.27869	-0.00254
1934.35012	-0.00253
1932.42156	-0.00252
1930.49299	-0.00253
1928.56443	-0.00255
1926.63586	-0.00256
1924.70730	-0.00256
1922.77874	-0.00255
1920.85017	-0.00253
1918.92161	-0.00250
1916.99304	-0.00251
1915.06448	-0.00253
1913.13591	-0.00253
1911.20735	-0.00252
1909.27878	-0.00251
1907.35022	-0.00251
1905.42166	-0.00253
1903.49309	-0.00253
1901.56453	-0.00253
1899.63596	-0.00254
1897.70740	-0.00253
1895.77883	-0.00253
1893.85027	-0.00253
1891.92171	-0.00251
1889.99314	-0.00250
1888.06458	-0.00251
1886.13601	-0.00254
1884.20745	-0.00254
1882.27888	-0.00254
1880.35032	-0.00255
1878.42175	-0.00255
1876.49319	-0.00255
1874.56463	-0.00255
1872.63606	-0.00253
1870.70750	-0.00249
1868.77893	-0.00246
1866.85037	-0.00250
1864.92180	-0.00256
1862.99324	-0.00260
1861.06467	-0.00262
1859.13611	-0.00263
1857.20755	-0.00266
1855.27898	-0.00269
1853.35042	-0.00271
1851.42185	-0.00271
1849.49329	-0.00269
1847.56472	-0.00265
1845.63616	-0.00260
1843.70759	-0.00263
1841.77903	-0.00275
1839.85047	-0.00284
1837.92190	-0.00288
1835.99334	-0.00290
1834.06477	-0.00292
1832.13621	-0.00291
1830.20764	-0.00289
1828.27908	-0.00290
1826.35051	-0.00290
1824.42195	-0.00290
1822.49339	-0.00290
1820.56482	-0.00290
1818.63626	-0.00288
1816.70769	-0.00287
1814.77913	-0.00285
1812.85056	-0.00284
1810.92200	-0.00282
1808.99343	-0.00283
1807.06487	-0.00287
1805.13631	-0.00292
1803.20774	-0.00301
1801.27918	-0.00317
1799.35061	-0.00339
1797.42205	-0.00357
1795.49348	-0.00353
1793.56492	-0.00332
1791.63635	-0.00313
1789.70779	-0.00305
1787.77923	-0.00300
1785.85066	-0.00294
1783.92210	-0.00289
1781.99353	-0.00288
1780.06497	-0.00289
1778.13640	-0.00292
1776.20784	-0.00290
1774.27927	-0.00280
1772.35071	-0.00273
1770.42215	-0.00279
1768.49358	-0.00288
1766.56502	-0.00296
1764.63645	-0.00302
1762.70789	-0.00306
1760.77932	-0.00318
1758.85076	-0.00340
1756.92220	-0.00369
1754.99363	-0.00395
1753.06507	-0.00399
1751.13650	-0.00386
1749.20794	-0.00379
1747.27937	-0.00385
1745.35081	-0.00400
1743.42224	-0.00421
1741.49368	-0.00453
1739.56512	-0.00510
1737.63655	-0.00589
1735.70799	-0.00674
1733.77942	-0.00768
1731.85086	-0.00869
1729.92229	-0.00952
1727.99373	-0.01011
1726.06516	-0.01066
1724.13660	-0.01134
1722.20804	-0.01220
1720.27947	-0.01321
1718.35091	-0.01464
1716.42234	-0.01708
1714.49378	-0.02008
1712.56521	-0.02142
1710.63665	-0.01926
1708.70808	-0.01484
1706.77952	-0.01100
1704.85096	-0.00893
1702.92239	-0.00787
1700.99383	-0.00707
1699.06526	-0.00635
1697.13670	-0.00564
1695.20813	-0.00498
1693.27957	-0.00449
1691.35100	-0.00410
1689.42244	-0.00373
1687.49388	-0.00332
1685.56531	-0.00287
1683.63675	-0.00269
1681.70818	-0.00281
1679.77962	-0.00291
1677.85105	-0.00285
1675.92249	-0.00275
1673.99392	-0.00274
1672.06536	-0.00275
1670.13680	-0.00273
1668.20823	-0.00281
1666.27967	-0.00294
1664.35110	-0.00299
1662.42254	-0.00302
1660.49397	-0.00312
1658.56541	-0.00317
1656.63684	-0.00299
1654.70828	-0.00260
1652.77972	-0.00243
1650.85115	-0.00266
1648.92259	-0.00281
1646.99402	-0.00278
1645.06546	-0.00282
1643.13689	-0.00295
1641.20833	-0.00299
1639.27976	-0.00285
1637.35120	-0.00261
1635.42264	-0.00250
1633.49407	-0.00262
1631.56551	-0.00275
1629.63694	-0.00273
1627.70838	-0.00267
1625.77981	-0.00260
1623.85125	-0.00256
1621.92269	-0.00259
1619.99412	-0.00258
1618.06556	-0.00246
1616.13699	-0.00243
1614.20843	-0.00256
1612.27986	-0.00268
1610.35130	-0.00269
1608.42273	-0.00266
1606.49417	-0.00263
1604.56561	-0.00261
1602.63704	-0.00261
1600.70848	-0.00260
1598.77991	-0.00260
1596.85135	-0.00260
1594.92278	-0.00261
1592.99422	-0.00262
1591.06565	-0.00261
1589.13709	-0.00261
1587.20853	-0.00261
1585.27996	-0.00261
1583.35140	-0.00260
1581.42283	-0.00258
1579.49427	-0.00249
1577.56570	-0.00233
1575.63714	-0.00229
1573.70857	-0.00241
1571.78001	-0.00246
1569.85145	-0.00243
1567.92288	-0.00247
1565.99432	-0.00253
1564.06575	-0.00249
1562.13719	-0.00224
1560.20862	-0.00189
1558.28006	-0.00184
1556.35149	-0.00211
1554.42293	-0.00235
1552.49437	-0.00249
1550.56580	-0.00255
1548.63724	-0.00257
1546.70867	-0.00253
1544.78011	-0.00242
1542.85154	-0.00225
1540.92298	-0.00213
1538.99441	-0.00226
1537.06585	-0.00255
1535.13729	-0.00268
1533.20872	-0.00269
1531.28016	-0.00274
1529.35159	-0.00275
1527.42303	-0.00266
1525.49446	-0.00252
1523.56590	-0.00236
1521.63733	-0.00224
1519.70877	-0.00228
1517.78021	-0.00239
1515.85164	-0.00248
1513.92308	-0.00255
1511.99451	-0.00257
1510.06595	-0.00246
1508.13738	-0.00226
1506.20882	-0.00221
1504.28025	-0.00245
1502.35169	-0.00266
1500.42313	-0.00266
1498.49456	-0.00253
1496.56600	-0.00248
1494.63743	-0.00256
1492.70887	-0.00261
1490.78030	-0.00257
1488.85174	-0.00256
1486.92317	-0.00262
1484.99461	-0.00270
1483.06605	-0.00274
1481.13748	-0.00275
1479.20892	-0.00274
1477.28035	-0.00270
1475.35179	-0.00261
1473.42322	-0.00254
1471.49466	-0.00260
1469.56610	-0.00274
1467.63753	-0.00276
1465.70897	-0.00270
1463.78040	-0.00268
1461.85184	-0.00262
1459.92327	-0.00229
1457.99471	-0.00172
1456.06614	-0.00128
1454.13758	-0.00124
1452.20902	-0.00157
1450.28045	-0.00212
1448.35189	-0.00277
1446.42332	-0.00345
1444.49476	-0.00401
1442.56619	-0.00430
1440.63763	-0.00433
1438.70906	-0.00439
1436.78050	-0.00475
1434.85194	-0.00528
1432.92337	-0.00540
1430.99481	-0.00502
1429.06624	-0.00462
1427.13768	-0.00448
1425.20911	-0.00453
1423.28055	-0.00469
1421.35198	-0.00498
1419.42342	-0.00534
1417.49486	-0.00560
1415.56629	-0.00561
1413.63773	-0.00532
1411.70916	-0.00483
1409.78060	-0.00428
1407.85203	-0.00380
1405.92347	-0.00345
1403.99490	-0.00326
1402.06634	-0.00315
1400.13778	-0.00303
1398.20921	-0.00293
1396.28065	-0.00286
1394.35208	-0.00284
1392.42352	-0.00286
1390.49495	-0.00286
1388.56639	-0.00283
1386.63782	-0.00283
1384.70926	-0.00288
1382.78070	-0.00292
1380.85213	-0.00296
1378.92357	-0.00303
1376.99500	-0.00316
1375.06644	-0.00336
1373.13787	-0.00364
1371.20931	-0.00390
1369.28074	-0.00420
1367.35218	-0.00465
1365.42362	-0.00509
1363.49505	-0.00532
1361.56649	-0.00532
1359.63792	-0.00507
1357.70936	-0.00449
1355.78079	-0.00378
1353.85223	-0.00327
1351.92366	-0.00303
1349.99510	-0.00294
1348.06654	-0.00290
1346.13797	-0.00287
1344.20941	-0.00283
1342.28084	-0.00279
1340.35228	-0.00279
1338.42371	-0.00286
1336.49515	-0.00304
1334.56659	-0.00343
1332.63802	-0.00402
1330.70946	-0.00466
1328.78089	-0.00525
1326.85233	-0.00583
1324.92376	-0.00634
1322.99520	-0.00667
1321.06663	-0.00674
1319.13807	-0.00666
1317.20951	-0.00652
1315.28094	-0.00644
1313.35238	-0.00653
1311.42381	-0.00681
1309.49525	-0.00721
1307.56668	-0.00788
1305.63812	-0.00894
1303.70955	-0.00960
1301.78099	-0.00867
1299.85243	-0.00653
1297.92386	-0.00471
1295.99530	-0.00384
1294.06673	-0.00360
1292.13817	-0.00363
1290.20960	-0.00372
1288.28104	-0.00378
1286.35247	-0.00375
1284.42391	-0.00366
1282.49535	-0.00354
1280.56678	-0.00342
1278.63822	-0.00332
1276.70965	-0.00324
1274.78109	-0.00320
1272.85252	-0.00316
1270.92396	-0.00311
1268.99539	-0.00307
1267.06683	-0.00303
1265.13827	-0.00299
1263.20970	-0.00294
1261.28114	-0.00291
1259.35257	-0.00289
1257.42401	-0.00288
1255.49544	-0.00286
1253.56688	-0.00284
1251.63831	-0.00282
1249.70975	-0.00282
1247.78119	-0.00282
1245.85262	-0.00281
1243.92406	-0.00281
1241.99549	-0.00279
1240.06693	-0.00277
1238.13836	-0.00275
1236.20980	-0.00274
1234.28123	-0.00273
1232.35267	-0.00273
1230.42411	-0.00273
1228.49554	-0.00271
1226.56698	-0.00270
1224.63841	-0.00269
1222.70985	-0.00268
1220.78128	-0.00266
1218.85272	-0.00263
1216.92415	-0.00262
1214.99559	-0.00261
1213.06703	-0.00262
1211.13846	-0.00263
1209.20990	-0.00264
1207.28133	-0.00262
1205.35277	-0.00261
1203.42420	-0.00261
1201.49564	-0.00261
1199.56708	-0.00262
1197.63851	-0.00263
1195.70995	-0.00263
1193.78138	-0.00261
1191.85282	-0.00261
1189.92425	-0.00262
1187.99569	-0.00263
1186.06712	-0.00263
1184.13856	-0.00264
1182.21000	-0.00264
1180.28143	-0.00264
1178.35287	-0.00264
1176.42430	-0.00265
1174.49574	-0.00265
1172.56717	-0.00265
1170.63861	-0.00265
1168.71004	-0.00266
1166.78148	-0.00266
1164.85292	-0.00266
1162.92435	-0.00266
1160.99579	-0.00267
1159.06722	-0.00267
1157.13866	-0.00266
1155.21009	-0.00266
1153.28153	-0.00267
1151.35296	-0.00268
1149.42440	-0.00269
1147.49584	-0.00271
1145.56727	-0.00272
1143.63871	-0.00273
1141.71014	-0.00273
1139.78158	-0.00273
1137.85301	-0.00274
1135.92445	-0.00275
1133.99588	-0.00274
1132.06732	-0.00272
1130.13876	-0.00272
1128.21019	-0.00274
1126.28163	-0.00276
1124.35306	-0.00276
1122.42450	-0.00275
1120.49593	-0.00274
1118.56737	-0.00273
1116.63880	-0.00273
1114.71024	-0.00274
1112.78168	-0.00275
1110.85311	-0.00274
1108.92455	-0.00273
1106.99598	-0.00273
1105.06742	-0.00273
1103.13885	-0.00272
1101.21029	-0.00270
1099.28172	-0.00269
1097.35316	-0.00269
1095.42460	-0.00269
1093.49603	-0.00269
1091.56747	-0.00269
1089.63890	-0.00270
1087.71034	-0.00269
1085.78177	-0.00269
1083.85321	-0.00270
1081.92464	-0.00269
1079.99608	-0.00269
1078.06752	-0.00269
1076.13895	-0.00268
1074.21039	-0.00269
1072.28182	-0.00271
1070.35326	-0.00273
1068.42469	-0.00277
1066.49613	-0.00284
1064.56756	-0.00297
1062.63900	-0.00328
1060.71044	-0.00397
1058.78187	-0.00503
1056.85331	-0.00582
1054.92474	-0.00570
1052.99618	-0.00490
1051.06761	-0.00407
1049.13905	-0.00352
1047.21049	-0.00320
1045.28192	-0.00304
1043.35336	-0.00293
1041.42479	-0.00288
1039.49623	-0.00288
1037.56766	-0.00293
1035.63910	-0.00301
1033.71053	-0.00322
1031.78197	-0.00362
1029.85341	-0.00408
1027.92484	-0.00434
1025.99628	-0.00430
1024.06771	-0.00407
1022.13915	-0.00376
1020.21058	-0.00344
1018.28202	-0.00319
1016.35345	-0.00304
1014.42489	-0.00296
1012.49633	-0.00290
1010.56776	-0.00284
1008.63920	-0.00282
1006.71063	-0.00283
1004.78207	-0.00283
1002.85350	-0.00283
1000.92494	-0.00287
998.99637	-0.00296
997.06781	-0.00308
995.13925	-0.00318
993.21068	-0.00330
991.28212	-0.00345
989.35355	-0.00363
987.42499	-0.00386
985.49642	-0.00422
983.56786	-0.00469
981.63929	-0.00518
979.71073	-0.00551
977.78217	-0.00554
975.85360	-0.00535
973.92504	-0.00520
971.99647	-0.00531
970.06791	-0.00579
968.13934	-0.00663
966.21078	-0.00775
964.28221	-0.00905
962.35365	-0.01045
960.42509	-0.01194
958.49652	-0.01339
956.56796	-0.01446
954.63939	-0.01477
952.71083	-0.01408
950.78226	-0.01257
948.85370	-0.01068
946.92513	-0.00886
944.99657	-0.00731
943.06801	-0.00609
941.13944	-0.00516
939.21088	-0.00448
937.28231	-0.00397
935.35375	-0.00363
933.42518	-0.00342
931.49662	-0.00328
929.56805	-0.00318
927.63949	-0.00310
925.71093	-0.00305
923.78236	-0.00300
921.85380	-0.00296
919.92523	-0.00291
917.99667	-0.00286
916.06810	-0.00281
914.13954	-0.00276
912.21098	-0.00273
910.28241	-0.00273
908.35385	-0.00276
906.42528	-0.00279
904.49672	-0.00283
902.56815	-0.00289
900.63959	-0.00294
898.71102	-0.00291
896.78246	-0.00277
894.85390	-0.00263
892.92533	-0.00257
890.99677	-0.00258
889.06820	-0.00261
887.13964	-0.00258
885.21107	-0.00253
883.28251	-0.00250
881.35394	-0.00251
879.42538	-0.00253
877.49682	-0.00255
875.56825	-0.00255
873.63969	-0.00251
871.71112	-0.00245
869.78256	-0.00242
867.85399	-0.00242
865.92543	-0.00243
863.99686	-0.00243
862.06830	-0.00242
860.13974	-0.00242
858.21117	-0.00244
856.28261	-0.00245
854.35404	-0.00245
852.42548	-0.00244
850.49691	-0.00241
848.56835	-0.00237
846.63978	-0.00236
844.71122	-0.00238
842.78266	-0.00241
840.85409	-0.00239
838.92553	-0.00233
836.99696	-0.00231
835.06840	-0.00231
833.13983	-0.00232
831.21127	-0.00233
829.28270	-0.00234
827.35414	-0.00238
825.42558	-0.00242
823.49701	-0.00241
821.56845	-0.00240
819.63988	-0.00236
817.71132	-0.00230
815.78275	-0.00231
813.85419	-0.00232
811.92562	-0.00227
809.99706	-0.00224
808.06850	-0.00227
806.13993	-0.00231
804.21137	-0.00233
802.28280	-0.00232
800.35424	-0.00230
798.42567	-0.00232
796.49711	-0.00236
794.56854	-0.00235
792.63998	-0.00231
790.71142	-0.00228
788.78285	-0.00231
786.85429	-0.00235
784.92572	-0.00235
782.99716	-0.00231
781.06859	-0.00226
779.14003	-0.00225
777.21147	-0.00228
775.28290	-0.00233
773.35434	-0.00238
771.42577	-0.00242
769.49721	-0.00243
767.56864	-0.00243
765.64008	-0.00241
763.71151	-0.00235
761.78295	-0.00224
759.85439	-0.00214
757.92582	-0.00216
755.99726	-0.00225
754.06869	-0.00227
752.14013	-0.00228
750.21156	-0.00248
748.28300	-0.00275
746.35443	-0.00280
744.42587	-0.00265
742.49731	-0.00261
740.56874	-0.00269
738.64018	-0.00275
736.71161	-0.00285
734.78305	-0.00309
732.85448	-0.00305
730.92592	-0.00259
728.99735	-0.00242
727.06879	-0.00290
725.14023	-0.00338
723.21166	-0.00300
721.28310	-0.00132
719.35453	0.00001
717.42597	-0.00143
715.49740	-0.00420
713.56884	-0.00545
711.64027	-0.00564
709.71171	-0.00603
707.78315	-0.00631
705.85458	-0.00620
703.92602	-0.00612
701.99745	-0.00634
700.06889	-0.00658
698.14032	-0.00656
696.21176	-0.00646
694.28319	-0.00671
692.35463	-0.00703
690.42607	-0.00693
688.49750	-0.00669
686.56894	-0.00661
684.64037	-0.00656
682.71181	-0.00656
680.78324	-0.00668
678.85468	-0.00674
676.92611	-0.00660
674.99755	-0.00639
673.06899	-0.00639
671.14042	-0.00657
669.21186	-0.00664
667.28329	-0.00644
665.35473	-0.00615
663.42616	-0.00608
661.49760	-0.00626
659.56903	-0.00642
657.64047	-0.00639
655.71191	-0.00626
653.78334	-0.00628
651.85478	-0.00647
649.92621	-0.00653
647.99765	-0.00652
646.06908	-0.00670
644.14052	-0.00693
642.21195	-0.00699
640.28339	-0.00685
638.35483	-0.00669
636.42626	-0.00671
634.49770	-0.00683
632.56913	-0.00677
630.64057	-0.00653
628.71200	-0.00639
626.78344	-0.00647
624.85488	-0.00658
622.92631	-0.00663
620.99775	-0.00662
619.06918	-0.00660
617.14062	-0.00672
615.21205	-0.00689
613.28349	-0.00672
611.35492	-0.00634
609.42636	-0.00617
607.49780	-0.00622
605.56923	-0.00641
603.64067	-0.00673
601.71210	-0.00697
599.78354	-0.00690
597.85497	-0.00664
595.92641	-0.00646
593.99784	-0.00646
592.06928	-0.00666
590.14072	-0.00700
588.21215	-0.00710
586.28359	-0.00676
584.35502	-0.00646
582.42646	-0.00655
580.49789	-0.00664
578.56933	-0.00644
576.64076	-0.00614
574.71220	-0.00602
572.78364	-0.00614
570.85507	-0.00626
568.92651	-0.00629
566.99794	-0.00626
565.06938	-0.00616
563.14081	-0.00612
561.21225	-0.00626
559.28368	-0.00653
557.35512	-0.00680
555.42656	-0.00687
553.49799	-0.00670
551.56943	-0.00657
549.64086	-0.00655
547.71230	-0.00654
545.78373	-0.00656
543.85517	-0.00648
541.92660	-0.00635
539.99804	-0.00637
538.06948	-0.00649
536.14091	-0.00665
534.21235	-0.00681
532.28378	-0.00690
530.35522	-0.00678
528.42665	-0.00650
526.49809	-0.00639
524.56952	-0.00643
522.64096	-0.00642
520.71240	-0.00656
518.78383	-0.00680
516.85527	-0.00682
514.92670	-0.00671
512.99814	-0.00674
511.06957	-0.00686
509.14101	-0.00682
507.21244	-0.00668
505.28388	-0.00670
503.35532	-0.00670
501.42675	-0.00645
499.49819	-0.00624
497.56962	-0.00632
495.64106	-0.00650
493.71249	-0.00647
491.78393	-0.00626
489.85537	-0.00618
487.92680	-0.00616
485.99824	-0.00610
484.06967	-0.00614
482.14111	-0.00631
480.21254	-0.00645
478.28398	-0.00615
476.35541	-0.00517
474.42685	-0.00467
472.49829	-0.00544
470.56972	-0.00624
468.64116	-0.00630
466.71259	-0.00625
464.78403	-0.00634
462.85546	-0.00656
460.92690	-0.00702
458.99833	-0.00706
457.06977	-0.00632
455.14121	-0.00614
453.21264	-0.00696
451.28408	-0.00752
449.35551	-0.00731
447.42695	-0.00673
445.49838	-0.00674
443.56982	-0.00779
441.64125	-0.00853
439.71269	-0.00784
437.78413	-0.00669
435.85556	-0.00622
433.92700	-0.00616
431.99843	-0.00616
430.06987	-0.00627
428.14130	-0.00647
426.21274	-0.00672
424.28417	-0.00696
422.35561	-0.00733
420.42705	-0.00763
418.49848	-0.00747
416.56992	-0.00710
414.64135	-0.00691
412.71279	-0.00684
410.78422	-0.00695
408.85566	-0.00702
406.92709	-0.00677
404.99853	-0.00656
403.06997	-0.00666
401.14140	-0.00680
399.21284	-0.00673
397.28427	-0.00662
395.35571	-0.00676
393.42714	-0.00702
391.49858	-0.00703
389.57001	-0.00687
387.64145	-0.00684
385.71289	-0.00693
383.78432	-0.00701
381.85576	-0.00690
379.92719	-0.00664
377.99863	-0.00656
376.07006	-0.00659
374.14150	-0.00651
372.21293	-0.00649
370.28437	-0.00667
368.35581	-0.00679
