3997.91406	-0.00159
3995.98550	-0.00163
3994.05693	-0.00165
3992.12837	-0.00164
3990.19980	-0.00163
3988.27124	-0.00163
3986.34268	-0.00163
3984.41411	-0.00162
3982.48555	-0.00162
3980.55698	-0.00163
3978.62842	-0.00163
3976.69985	-0.00161
3974.77129	-0.00158
3972.84272	-0.00156
3970.91416	-0.00158
3968.98560	-0.00158
3967.05703	-0.00158
3965.12847	-0.00158
3963.19990	-0.00158
3961.27134	-0.00155
3959.34277	-0.00155
3957.41421	-0.00160
3955.48564	-0.00162
3953.55708	-0.00163
3951.62852	-0.00163
3949.69995	-0.00162
3947.77139	-0.00161
3945.84282	-0.00160
3943.91426	-0.00160
3941.98569	-0.00159
3940.05713	-0.00158
3938.12856	-0.00158
3936.20000	-0.00158
3934.27144	-0.00157
3932.34287	-0.00156
3930.41431	-0.00158
3928.48574	-0.00162
3926.55718	-0.00163
3924.62861	-0.00163
3922.70005	-0.00162
3920.77148	-0.00161
3918.84292	-0.00159
3916.91436	-0.00159
3914.98579	-0.00161
3913.05723	-0.00161
3911.12866	-0.00162
3909.20010	-0.00162
3907.27153	-0.00158
3905.34297	-0.00152
3903.41440	-0.00149
3901.48584	-0.00151
3899.55728	-0.00155
3897.62871	-0.00159
3895.70015	-0.00162
3893.77158	-0.00159
3891.84302	-0.00156
3889.91445	-0.00158
3887.98589	-0.00160
3886.05733	-0.00159
3884.12876	-0.00159
3882.20020	-0.00160
3880.27163	-0.00160
3878.34307	-0.00163
3876.41450	-0.00164
3874.48594	-0.00161
3872.55737	-0.00158
3870.62881	-0.00157
3868.70025	-0.00158
3866.77168	-0.00157
3864.84312	-0.00155
3862.91455	-0.00157
3860.98599	-0.00160
3859.05742	-0.00161
3857.12886	-0.00153
3855.20029	-0.00140
3853.27173	-0.00138
3851.34317	-0.00150
3849.41460	-0.00161
3847.48604	-0.00165
3845.55747	-0.00166
3843.62891	-0.00164
3841.70034	-0.00160
3839.77178	-0.00154
3837.84321	-0.00153
3835.91465	-0.00158
3833.98609	-0.00162
3832.05752	-0.00161
3830.12896	-0.00161
3828.20039	-0.00164
3826.27183	-0.00167
3824.34326	-0.00165
3822.41470	-0.00160
3820.48613	-0.00158
3818.55757	-0.00157
3816.62901	-0.00156
3814.70044	-0.00158
3812.77188	-0.00164
3810.84331	-0.00166
3808.91475	-0.00165
3806.98618	-0.00162
3805.05762	-0.00160
3803.12905	-0.00157
3801.20049	-0.00158
3799.27193	-0.00163
3797.34336	-0.00166
3795.41480	-0.00167
3793.48623	-0.00169
3791.55767	-0.00170
3789.62910	-0.00170
3787.70054	-0.00170
3785.77197	-0.00171
3783.84341	-0.00172
3781.91485	-0.00173
3779.98628	-0.00174
3778.05772	-0.00175
3776.12915	-0.00174
3774.20059	-0.00171
3772.27202	-0.00167
3770.34346	-0.00165
3768.41489	-0.00166
3766.48633	-0.00166
3764.55777	-0.00167
3762.62920	-0.00167
3760.70064	-0.00166
3758.77207	-0.00168
3756.84351	-0.00170
3754.91494	-0.00165
3752.98638	-0.00152
3751.05781	-0.00145
3749.12925	-0.00148
3747.20069	-0.00150
3745.27212	-0.00147
3743.34356	-0.00150
3741.41499	-0.00158
3739.48643	-0.00158
3737.55786	-0.00151
3735.62930	-0.00147
3733.70074	-0.00151
3731.77217	-0.00161
3729.84361	-0.00168
3727.91504	-0.00169
3725.98648	-0.00169
3724.05791	-0.00171
3722.12935	-0.00172
3720.20078	-0.00172
3718.27222	-0.00175
3716.34366	-0.00177
3714.41509	-0.00174
3712.48653	-0.00170
3710.55796	-0.00169
3708.62940	-0.00171
3706.70083	-0.00174
3704.77227	-0.00175
3702.84370	-0.00175
3700.91514	-0.00176
3698.98658	-0.00179
3697.05801	-0.00181
3695.12945	-0.00180
3693.20088	-0.00177
3691.27232	-0.00170
3689.34375	-0.00164
3687.41519	-0.00167
3685.48662	-0.00175
3683.55806	-0.00180
3681.62950	-0.00180
3679.70093	-0.00175
3677.77237	-0.00168
3675.84380	-0.00163
3673.91524	-0.00165
3671.98667	-0.00166
3670.05811	-0.00168
3668.12954	-0.00175
3666.20098	-0.00182
3664.27242	-0.00184
3662.34385	-0.00184
3660.41529	-0.00184
3658.48672	-0.00181
3656.55816	-0.00179
3654.62959	-0.00179
3652.70103	-0.00175
3650.77246	-0.00169
3648.84390	-0.00169
3646.91534	-0.00175
3644.98677	-0.00180
3643.05821	-0.00182
3641.12964	-0.00183
3639.20108	-0.00186
3637.27251	-0.00188
3635.34395	-0.00187
3633.41538	-0.00184
3631.48682	-0.00179
3629.55826	-0.00174
3627.62969	-0.00177
3625.70113	-0.00185
3623.77256	-0.00188
3621.84400	-0.00182
3619.91543	-0.00177
3617.98687	-0.00179
3616.05830	-0.00185
3614.12974	-0.00187
3612.20118	-0.00187
3610.27261	-0.00187
3608.34405	-0.00188
3606.41548	-0.00191
3604.48692	-0.00192
3602.55835	-0.00192
3600.62979	-0.00192
3598.70123	-0.00191
3596.77266	-0.00189
3594.84410	-0.00189
3592.91553	-0.00190
3590.98697	-0.00189
3589.05840	-0.00186
3587.12984	-0.00185
3585.20127	-0.00187
3583.27271	-0.00190
3581.34415	-0.00192
3579.41558	-0.00195
3577.48702	-0.00197
3575.55845	-0.00198
3573.62989	-0.00195
3571.70132	-0.00191
3569.77276	-0.00188
3567.84419	-0.00189
3565.91563	-0.00193
3563.98707	-0.00198
3562.05850	-0.00198
3560.12994	-0.00198
3558.20137	-0.00199
3556.27281	-0.00198
3554.34424	-0.00198
3552.41568	-0.00198
3550.48711	-0.00200
3548.55855	-0.00201
3546.62999	-0.00201
3544.70142	-0.00201
3542.77286	-0.00200
3540.84429	-0.00199
3538.91573	-0.00197
3536.98716	-0.00199
3535.05860	-0.00202
3533.13003	-0.00203
3531.20147	-0.00202
3529.27291	-0.00199
3527.34434	-0.00197
3525.41578	-0.00198
3523.48721	-0.00201
3521.55865	-0.00203
3519.63008	-0.00205
3517.70152	-0.00205
3515.77295	-0.00204
3513.84439	-0.00203
3511.91583	-0.00204
3509.98726	-0.00207
3508.05870	-0.00209
3506.13013	-0.00209
3504.20157	-0.00208
3502.27300	-0.00208
3500.34444	-0.00210
3498.41587	-0.00209
3496.48731	-0.00206
3494.55875	-0.00205
3492.63018	-0.00206
3490.70162	-0.00207
3488.77305	-0.00209
3486.84449	-0.00212
3484.91592	-0.00212
3482.98736	-0.00209
3481.05879	-0.00206
3479.13023	-0.00208
3477.20167	-0.00212
3475.27310	-0.00214
3473.34454	-0.00214
3471.41597	-0.00214
3469.48741	-0.00214
3467.55884	-0.00215
3465.63028	-0.00216
3463.70171	-0.00218
3461.77315	-0.00219
3459.84459	-0.00219
3457.91602	-0.00218
3455.98746	-0.00219
3454.05889	-0.00218
3452.13033	-0.00217
3450.20176	-0.00215
3448.27320	-0.00216
3446.34464	-0.00218
3444.41607	-0.00220
3442.48751	-0.00221
3440.55894	-0.00222
3438.63038	-0.00225
3436.70181	-0.00226
3434.77325	-0.00228
3432.84468	-0.00231
3430.91612	-0.00232
3428.98756	-0.00233
3427.05899	-0.00233
3425.13043	-0.00234
3423.20186	-0.00234
3421.27330	-0.00235
3419.34473	-0.00233
3417.41617	-0.00230
3415.48760	-0.00228
3413.55904	-0.00227
3411.63048	-0.00226
3409.70191	-0.00226
3407.77335	-0.00228
3405.84478	-0.00229
3403.91622	-0.00230
3401.98765	-0.00230
3400.05909	-0.00230
3398.13052	-0.00229
3396.20196	-0.00227
3394.27340	-0.00227
3392.34483	-0.00228
3390.41627	-0.00228
3388.48770	-0.00227
3386.55914	-0.00226
3384.63057	-0.00226
3382.70201	-0.00227
3380.77344	-0.00228
3378.84488	-0.00229
3376.91632	-0.00229
3374.98775	-0.00228
3373.05919	-0.00227
3371.13062	-0.00228
3369.20206	-0.00229
3367.27349	-0.00230
3365.34493	-0.00231
3363.41636	-0.00231
3361.48780	-0.00231
3359.55924	-0.00229
3357.63067	-0.00228
3355.70211	-0.00231
3353.77354	-0.00234
3351.84498	-0.00234
3349.91641	-0.00234
3347.98785	-0.00235
3346.05928	-0.00235
3344.13072	-0.00235
3342.20216	-0.00234
3340.27359	-0.00234
3338.34503	-0.00234
3336.41646	-0.00233
3334.48790	-0.00234
3332.55933	-0.00235
3330.63077	-0.00235
3328.70220	-0.00236
3326.77364	-0.00236
3324.84508	-0.00236
3322.91651	-0.00237
3320.98795	-0.00239
3319.05938	-0.00238
3317.13082	-0.00236
3315.20225	-0.00235
3313.27369	-0.00237
3311.34513	-0.00239
3309.41656	-0.00238
3307.48800	-0.00238
3305.55943	-0.00239
3303.63087	-0.00242
3301.70230	-0.00243
3299.77374	-0.00241
3297.84517	-0.00237
3295.91661	-0.00234
3293.98805	-0.00234
3292.05948	-0.00237
3290.13092	-0.00239
3288.20235	-0.00239
3286.27379	-0.00238
3284.34522	-0.00239
3282.41666	-0.00242
3280.48809	-0.00243
3278.55953	-0.00242
3276.63097	-0.00241
3274.70240	-0.00240
3272.77384	-0.00241
3270.84527	-0.00244
3268.91671	-0.00245
3266.98814	-0.00244
3265.05958	-0.00244
3263.13101	-0.00245
3261.20245	-0.00249
3259.27389	-0.00251
3257.34532	-0.00250
3255.41676	-0.00248
3253.48819	-0.00249
3251.55963	-0.00249
3249.63106	-0.00247
3247.70250	-0.00246
3245.77393	-0.00248
3243.84537	-0.00250
3241.91681	-0.00251
3239.98824	-0.00252
3238.05968	-0.00254
3236.13111	-0.00254
3234.20255	-0.00252
3232.27398	-0.00252
3230.34542	-0.00253
3228.41685	-0.00255
3226.48829	-0.00256
3224.55973	-0.00256
3222.63116	-0.00256
3220.70260	-0.00257
3218.77403	-0.00257
3216.84547	-0.00256
3214.91690	-0.00255
3212.98834	-0.00256
3211.05977	-0.00259
3209.13121	-0.00262
3207.20265	-0.00264
3205.27408	-0.00265
3203.34552	-0.00264
3201.41695	-0.00265
3199.48839	-0.00267
3197.55982	-0.00268
3195.63126	-0.00269
3193.70269	-0.00270
3191.77413	-0.00271
3189.84557	-0.00272
3187.91700	-0.00273
3185.98844	-0.00275
3184.05987	-0.00277
3182.13131	-0.00278
3180.20274	-0.00278
3178.27418	-0.00277
3176.34562	-0.00278
3174.41705	-0.00280
3172.48849	-0.00280
3170.55992	-0.00279
3168.63136	-0.00279
3166.70279	-0.00281
3164.77423	-0.00283
3162.84566	-0.00285
3160.91710	-0.00287
3158.98854	-0.00287
3157.05997	-0.00287
3155.13141	-0.00286
3153.20284	-0.00288
3151.27428	-0.00290
3149.34571	-0.00289
3147.41715	-0.00290
3145.48858	-0.00292
3143.56002	-0.00296
3141.63146	-0.00298
3139.70289	-0.00299
3137.77433	-0.00298
3135.84576	-0.00298
3133.91720	-0.00299
3131.98863	-0.00300
3130.06007	-0.00302
3128.13150	-0.00305
3126.20294	-0.00308
3124.27438	-0.00310
3122.34581	-0.00310
3120.41725	-0.00310
3118.48868	-0.00311
3116.56012	-0.00312
3114.63155	-0.00313
3112.70299	-0.00315
3110.77442	-0.00317
3108.84586	-0.00317
3106.91730	-0.00316
3104.98873	-0.00318
3103.06017	-0.00321
3101.13160	-0.00324
3099.20304	-0.00325
3097.27447	-0.00325
3095.34591	-0.00325
3093.41734	-0.00328
3091.48878	-0.00331
3089.56022	-0.00331
3087.63165	-0.00329
3085.70309	-0.00330
3083.77452	-0.00332
3081.84596	-0.00334
3079.91739	-0.00333
3077.98883	-0.00331
3076.06026	-0.00331
3074.13170	-0.00331
3072.20314	-0.00330
3070.27457	-0.00329
3068.34601	-0.00330
3066.41744	-0.00331
3064.48888	-0.00332
3062.56031	-0.00332
3060.63175	-0.00332
3058.70318	-0.00334
3056.77462	-0.00337
3054.84606	-0.00341
3052.91749	-0.00344
3050.98893	-0.00345
3049.06036	-0.00347
3047.13180	-0.00351
3045.20323	-0.00355
3043.27467	-0.00359
3041.34610	-0.00363
3039.41754	-0.00367
3037.48898	-0.00374
3035.56041	-0.00379
3033.63185	-0.00382
3031.70328	-0.00385
3029.77472	-0.00387
3027.84615	-0.00388
3025.91759	-0.00386
3023.98903	-0.00382
3022.06046	-0.00380
3020.13190	-0.00378
3018.20333	-0.00375
3016.27477	-0.00373
3014.34620	-0.00374
3012.41764	-0.00377
3010.48907	-0.00379
3008.56051	-0.00379
3006.63195	-0.00382
3004.70338	-0.00386
3002.77482	-0.00390
3000.84625	-0.00393
2998.91769	-0.00396
2996.98912	-0.00399
2995.06056	-0.00400
2993.13199	-0.00400
2991.20343	-0.00400
2989.27487	-0.00401
2987.34630	-0.00403
2985.41774	-0.00404
2983.48917	-0.00407
2981.56061	-0.00409
2979.63204	-0.00411
2977.70348	-0.00413
2975.77491	-0.00416
2973.84635	-0.00418
2971.91779	-0.00419
2969.98922	-0.00419
2968.06066	-0.00418
2966.13209	-0.00415
2964.20353	-0.00412
2962.27496	-0.00410
2960.34640	-0.00410
2958.41783	-0.00411
2956.48927	-0.00412
2954.56071	-0.00412
2952.63214	-0.00415
2950.70358	-0.00419
2948.77501	-0.00424
2946.84645	-0.00433
2944.91788	-0.00443
2942.98932	-0.00451
2941.06075	-0.00453
2939.13219	-0.00453
2937.20363	-0.00454
2935.27506	-0.00457
2933.34650	-0.00461
2931.41793	-0.00464
2929.48937	-0.00467
2927.56080	-0.00468
2925.63224	-0.00468
2923.70367	-0.00467
2921.77511	-0.00466
2919.84655	-0.00464
2917.91798	-0.00463
2915.98942	-0.00460
2914.06085	-0.00455
2912.13229	-0.00449
2910.20372	-0.00444
2908.27516	-0.00440
2906.34659	-0.00437
2904.41803	-0.00434
2902.48947	-0.00431
2900.56090	-0.00427
2898.63234	-0.00423
2896.70377	-0.00419
2894.77521	-0.00415
2892.84664	-0.00410
2890.91808	-0.00405
2888.98952	-0.00402
2887.06095	-0.00400
2885.13239	-0.00397
2883.20382	-0.00394
2881.27526	-0.00393
2879.34669	-0.00394
2877.41813	-0.00392
2875.48956	-0.00390
2873.56100	-0.00391
2871.63244	-0.00393
2869.70387	-0.00394
2867.77531	-0.00395
2865.84674	-0.00394
2863.91818	-0.00393
2861.98961	-0.00393
2860.06105	-0.00393
2858.13248	-0.00391
2856.20392	-0.00387
2854.27536	-0.00386
2852.34679	-0.00386
2850.41823	-0.00384
2848.48966	-0.00381
2846.56110	-0.00378
2844.63253	-0.00376
2842.70397	-0.00373
2840.77540	-0.00370
2838.84684	-0.00368
2836.91828	-0.00365
2834.98971	-0.00362
2833.06115	-0.00360
2831.13258	-0.00361
2829.20402	-0.00363
2827.27545	-0.00368
2825.34689	-0.00373
2823.41832	-0.00378
2821.48976	-0.00383
2819.56120	-0.00386
2817.63263	-0.00389
2815.70407	-0.00390
2813.77550	-0.00389
2811.84694	-0.00387
2809.91837	-0.00385
2807.98981	-0.00385
2806.06124	-0.00386
2804.13268	-0.00386
2802.20412	-0.00384
2800.27555	-0.00383
2798.34699	-0.00384
2796.41842	-0.00383
2794.48986	-0.00381
2792.56129	-0.00379
2790.63273	-0.00379
2788.70416	-0.00379
2786.77560	-0.00377
2784.84704	-0.00376
2782.91847	-0.00375
2780.98991	-0.00375
2779.06134	-0.00374
2777.13278	-0.00372
2775.20421	-0.00370
2773.27565	-0.00369
2771.34708	-0.00369
2769.41852	-0.00369
2767.48996	-0.00370
2765.56139	-0.00372
2763.63283	-0.00376
2761.70426	-0.00380
2759.77570	-0.00384
2757.84713	-0.00387
2755.91857	-0.00389
2753.99001	-0.00394
2752.06144	-0.00401
2750.13288	-0.00405
2748.20431	-0.00406
2746.27575	-0.00405
2744.34718	-0.00406
2742.41862	-0.00405
2740.49005	-0.00404
2738.56149	-0.00402
2736.63293	-0.00400
2734.70436	-0.00398
2732.77580	-0.00397
2730.84723	-0.00397
2728.91867	-0.00397
2726.99010	-0.00395
2725.06154	-0.00394
2723.13297	-0.00395
2721.20441	-0.00397
2719.27585	-0.00400
2717.34728	-0.00405
2715.41872	-0.00412
2713.49015	-0.00419
2711.56159	-0.00425
2709.63302	-0.00428
2707.70446	-0.00428
2705.77589	-0.00429
2703.84733	-0.00428
2701.91877	-0.00427
2699.99020	-0.00429
2698.06164	-0.00436
2696.13307	-0.00448
2694.20451	-0.00458
2692.27594	-0.00464
2690.34738	-0.00464
2688.41881	-0.00460
2686.49025	-0.00456
2684.56169	-0.00451
2682.63312	-0.00446
2680.70456	-0.00442
2678.77599	-0.00438
2676.84743	-0.00436
2674.91886	-0.00435
2672.99030	-0.00432
2671.06173	-0.00426
2669.13317	-0.00418
2667.20461	-0.00411
2665.27604	-0.00406
2663.34748	-0.00401
2661.41891	-0.00398
2659.49035	-0.00398
2657.56178	-0.00399
2655.63322	-0.00402
2653.70465	-0.00407
2651.77609	-0.00414
2649.84753	-0.00423
2647.91896	-0.00436
2645.99040	-0.00454
2644.06183	-0.00473
2642.13327	-0.00484
2640.20470	-0.00484
2638.27614	-0.00474
2636.34757	-0.00459
2634.41901	-0.00443
2632.49045	-0.00430
2630.56188	-0.00420
2628.63332	-0.00412
2626.70475	-0.00405
2624.77619	-0.00398
2622.84762	-0.00392
2620.91906	-0.00387
2618.99049	-0.00382
2617.06193	-0.00378
2615.13337	-0.00375
2613.20480	-0.00374
2611.27624	-0.00371
2609.34767	-0.00369
2607.41911	-0.00367
2605.49054	-0.00366
2603.56198	-0.00366
2601.63342	-0.00366
2599.70485	-0.00366
2597.77629	-0.00366
2595.84772	-0.00367
2593.91916	-0.00368
2591.99059	-0.00371
2590.06203	-0.00375
2588.13346	-0.00382
2586.20490	-0.00396
2584.27634	-0.00415
2582.34777	-0.00430
2580.41921	-0.00435
2578.49064	-0.00428
2576.56208	-0.00415
2574.63351	-0.00403
2572.70495	-0.00394
2570.77638	-0.00386
2568.84782	-0.00379
2566.91926	-0.00372
2564.99069	-0.00367
2563.06213	-0.00364
2561.13356	-0.00361
2559.20500	-0.00358
2557.27643	-0.00356
2555.34787	-0.00354
2553.41930	-0.00353
2551.49074	-0.00352
2549.56218	-0.00351
2547.63361	-0.00351
2545.70505	-0.00350
2543.77648	-0.00348
2541.84792	-0.00346
2539.91935	-0.00346
2537.99079	-0.00346
2536.06222	-0.00345
2534.13366	-0.00342
2532.20510	-0.00340
2530.27653	-0.00339
2528.34797	-0.00339
2526.41940	-0.00339
2524.49084	-0.00339
2522.56227	-0.00339
2520.63371	-0.00340
2518.70514	-0.00339
2516.77658	-0.00337
2514.84802	-0.00336
2512.91945	-0.00335
2510.99089	-0.00334
2509.06232	-0.00335
2507.13376	-0.00336
2505.20519	-0.00336
2503.27663	-0.00337
2501.34806	-0.00337
2499.41950	-0.00338
2497.49094	-0.00339
2495.56237	-0.00339
2493.63381	-0.00337
2491.70524	-0.00336
2489.77668	-0.00335
2487.84811	-0.00335
2485.91955	-0.00335
2483.99098	-0.00336
2482.06242	-0.00336
2480.13386	-0.00336
2478.20529	-0.00337
2476.27673	-0.00337
2474.34816	-0.00336
2472.41960	-0.00334
2470.49103	-0.00334
2468.56247	-0.00335
2466.63391	-0.00336
2464.70534	-0.00336
2462.77678	-0.00336
2460.84821	-0.00337
2458.91965	-0.00338
2456.99108	-0.00338
2455.06252	-0.00337
2453.13395	-0.00337
2451.20539	-0.00338
2449.27683	-0.00338
2447.34826	-0.00336
2445.41970	-0.00335
2443.49113	-0.00333
2441.56257	-0.00333
2439.63400	-0.00333
2437.70544	-0.00336
2435.77687	-0.00337
2433.84831	-0.00336
2431.91975	-0.00335
2429.99118	-0.00334
2428.06262	-0.00334
2426.13405	-0.00335
2424.20549	-0.00336
2422.27692	-0.00334
2420.34836	-0.00333
2418.41979	-0.00332
2416.49123	-0.00334
2414.56267	-0.00334
2412.63410	-0.00334
2410.70554	-0.00333
2408.77697	-0.00332
2406.84841	-0.00331
2404.91984	-0.00332
2402.99128	-0.00332
2401.06271	-0.00332
2399.13415	-0.00333
2397.20559	-0.00334
2395.27702	-0.00336
2393.34846	-0.00336
2391.41989	-0.00336
2389.49133	-0.00335
2387.56276	-0.00333
2385.63420	-0.00332
2383.70563	-0.00333
2381.77707	-0.00335
2379.84851	-0.00337
2377.91994	-0.00339
2375.99138	-0.00341
2374.06281	-0.00344
2372.13425	-0.00349
2370.20568	-0.00353
2368.27712	-0.00356
2366.34855	-0.00360
2364.41999	-0.00363
2362.49143	-0.00363
2360.56286	-0.00362
2358.63430	-0.00361
2356.70573	-0.00360
2354.77717	-0.00355
2352.84860	-0.00347
2350.92004	-0.00342
2348.99147	-0.00341
2347.06291	-0.00343
2345.13435	-0.00347
2343.20578	-0.00351
2341.27722	-0.00354
2339.34865	-0.00356
2337.42009	-0.00355
2335.49152	-0.00355
2333.56296	-0.00355
2331.63440	-0.00354
2329.70583	-0.00352
2327.77727	-0.00349
2325.84870	-0.00347
2323.92014	-0.00345
2321.99157	-0.00344
2320.06301	-0.00344
2318.13444	-0.00343
2316.20588	-0.00341
2314.27732	-0.00339
2312.34875	-0.00339
2310.42019	-0.00339
2308.49162	-0.00338
2306.56306	-0.00336
2304.63449	-0.00336
2302.70593	-0.00335
2300.77736	-0.00333
2298.84880	-0.00332
2296.92024	-0.00332
2294.99167	-0.00332
2293.06311	-0.00332
2291.13454	-0.00332
2289.20598	-0.00331
2287.27741	-0.00330
2285.34885	-0.00330
2283.42028	-0.00332
2281.49172	-0.00332
2279.56316	-0.00331
2277.63459	-0.00330
2275.70603	-0.00331
2273.77746	-0.00331
2271.84890	-0.00332
2269.92033	-0.00332
2267.99177	-0.00332
2266.06320	-0.00332
2264.13464	-0.00334
2262.20608	-0.00335
2260.27751	-0.00336
2258.34895	-0.00336
2256.42038	-0.00334
2254.49182	-0.00333
2252.56325	-0.00331
2250.63469	-0.00330
2248.70612	-0.00329
2246.77756	-0.00328
2244.84900	-0.00328
2242.92043	-0.00328
2240.99187	-0.00328
2239.06330	-0.00329
2237.13474	-0.00329
2235.20617	-0.00328
2233.27761	-0.00327
2231.34904	-0.00327
2229.42048	-0.00326
2227.49192	-0.00326
2225.56335	-0.00327
2223.63479	-0.00329
2221.70622	-0.00329
2219.77766	-0.00328
2217.84909	-0.00328
2215.92053	-0.00330
2213.99196	-0.00331
2212.06340	-0.00331
2210.13484	-0.00330
2208.20627	-0.00329
2206.27771	-0.00329
2204.34914	-0.00328
2202.42058	-0.00328
2200.49201	-0.00328
2198.56345	-0.00328
2196.63488	-0.00329
2194.70632	-0.00331
2192.77776	-0.00332
2190.84919	-0.00331
2188.92063	-0.00330
2186.99206	-0.00331
2185.06350	-0.00332
2183.13493	-0.00333
2181.20637	-0.00333
2179.27781	-0.00332
2177.34924	-0.00331
2175.42068	-0.00331
2173.49211	-0.00330
2171.56355	-0.00329
2169.63498	-0.00329
2167.70642	-0.00330
2165.77785	-0.00330
2163.84929	-0.00331
2161.92073	-0.00332
2159.99216	-0.00333
2158.06360	-0.00333
2156.13503	-0.00332
2154.20647	-0.00331
2152.27790	-0.00331
2150.34934	-0.00332
2148.42077	-0.00332
2146.49221	-0.00331
2144.56365	-0.00331
2142.63508	-0.00331
2140.70652	-0.00332
2138.77795	-0.00332
2136.84939	-0.00331
2134.92082	-0.00331
2132.99226	-0.00331
2131.06369	-0.00332
2129.13513	-0.00332
2127.20657	-0.00334
2125.27800	-0.00335
2123.34944	-0.00334
2121.42087	-0.00333
2119.49231	-0.00333
2117.56374	-0.00332
2115.63518	-0.00331
2113.70661	-0.00332
2111.77805	-0.00333
2109.84949	-0.00333
2107.92092	-0.00331
2105.99236	-0.00331
2104.06379	-0.00332
2102.13523	-0.00332
2100.20666	-0.00332
2098.27810	-0.00332
2096.34953	-0.00332
2094.42097	-0.00331
2092.49241	-0.00330
2090.56384	-0.00330
2088.63528	-0.00331
2086.70671	-0.00332
2084.77815	-0.00330
2082.84958	-0.00329
2080.92102	-0.00330
2078.99245	-0.00331
2077.06389	-0.00331
2075.13533	-0.00330
2073.20676	-0.00329
2071.27820	-0.00327
2069.34963	-0.00324
2067.42107	-0.00321
2065.49250	-0.00319
2063.56394	-0.00319
2061.63537	-0.00320
2059.70681	-0.00320
2057.77825	-0.00321
2055.84968	-0.00322
2053.92112	-0.00325
2051.99255	-0.00328
2050.06399	-0.00328
2048.13542	-0.00329
2046.20686	-0.00331
2044.27830	-0.00333
2042.34973	-0.00334
2040.42117	-0.00334
2038.49260	-0.00334
2036.56404	-0.00336
2034.63547	-0.00336
2032.70691	-0.00336
2030.77834	-0.00335
2028.84978	-0.00333
2026.92122	-0.00333
2024.99265	-0.00333
2023.06409	-0.00333
2021.13552	-0.00335
2019.20696	-0.00336
2017.27839	-0.00336
2015.34983	-0.00337
2013.42126	-0.00337
2011.49270	-0.00338
2009.56414	-0.00339
2007.63557	-0.00339
2005.70701	-0.00339
2003.77844	-0.00339
2001.84988	-0.00338
1999.92131	-0.00338
1997.99275	-0.00339
1996.06418	-0.00340
1994.13562	-0.00339
1992.20706	-0.00339
1990.27849	-0.00339
1988.34993	-0.00340
1986.42136	-0.00340
1984.49280	-0.00340
1982.56423	-0.00340
1980.63567	-0.00338
1978.70710	-0.00337
1976.77854	-0.00337
1974.84998	-0.00338
1972.92141	-0.00338
1970.99285	-0.00338
1969.06428	-0.00338
1967.13572	-0.00337
1965.20715	-0.00338
1963.27859	-0.00338
1961.35002	-0.00339
1959.42146	-0.00339
1957.49290	-0.00339
1955.56433	-0.00338
1953.63577	-0.00337
1951.70720	-0.00336
1949.77864	-0.00336
1947.85007	-0.00336
1945.92151	-0.00336
1943.99294	-0.00335
1942.06438	-0.00336
1940.13582	-0.00337
1938.20725	-0.00337
1936.27869	-0.00335
1934.35012	-0.00335
1932.42156	-0.00335
1930.49299	-0.00336
1928.56443	-0.00337
1926.63586	-0.00338
1924.70730	-0.00338
1922.77874	-0.00338
1920.85017	-0.00338
1918.92161	-0.00338
1916.99304	-0.00338
1915.06448	-0.00340
1913.13591	-0.00340
1911.20735	-0.00338
1909.27878	-0.00337
1907.35022	-0.00337
1905.42166	-0.00338
1903.49309	-0.00338
1901.56453	-0.00338
1899.63596	-0.00338
1897.70740	-0.00339
1895.77883	-0.00339
1893.85027	-0.00340
1891.92171	-0.00340
1889.99314	-0.00340
1888.06458	-0.00341
1886.13601	-0.00341
1884.20745	-0.00342
1882.27888	-0.00343
1880.35032	-0.00345
1878.42175	-0.00346
1876.49319	-0.00346
1874.56463	-0.00346
1872.63606	-0.00346
1870.70750	-0.00344
1868.77893	-0.00343
1866.85037	-0.00345
1864.92180	-0.00349
1862.99324	-0.00351
1861.06467	-0.00352
1859.13611	-0.00352
1857.20755	-0.00354
1855.27898	-0.00356
1853.35042	-0.00358
1851.42185	-0.00360
1849.49329	-0.00359
1847.56472	-0.00358
1845.63616	-0.00357
1843.70759	-0.00358
1841.77903	-0.00364
1839.85047	-0.00370
1837.92190	-0.00374
1835.99334	-0.00377
1834.06477	-0.00380
1832.13621	-0.00381
1830.20764	-0.00381
1828.27908	-0.00381
1826.35051	-0.00380
1824.42195	-0.00379
1822.49339	-0.00379
1820.56482	-0.00377
1818.63626	-0.00374
1816.70769	-0.00370
1814.77913	-0.00368
1812.85056	-0.00366
1810.92200	-0.00366
1808.99343	-0.00367
1807.06487	-0.00371
1805.13631	-0.00377
1803.20774	-0.00388
1801.27918	-0.00407
1799.35061	-0.00431
1797.42205	-0.00447
1795.49348	-0.00444
1793.56492	-0.00427
1791.63635	-0.00408
1789.70779	-0.00395
1787.77923	-0.00387
1785.85066	-0.00381
1783.92210	-0.00377
1781.99353	-0.00376
1780.06497	-0.00376
1778.13640	-0.00378
1776.20784	-0.00379
1774.27927	-0.00376
1772.35071	-0.00375
1770.42215	-0.00378
1768.49358	-0.00382
1766.56502	-0.00386
1764.63645	-0.00391
1762.70789	-0.00397
1760.77932	-0.00409
1758.85076	-0.00430
1756.92220	-0.00459
1754.99363	-0.00486
1753.06507	-0.00494
1751.13650	-0.00486
1749.20794	-0.00478
1747.27937	-0.00480
1745.35081	-0.00491
1743.42224	-0.00512
1741.49368	-0.00547
1739.56512	-0.00606
1737.63655	-0.00688
1735.70799	-0.00783
1733.77942	-0.00882
1731.85086	-0.00973
1729.92229	-0.01044
1727.99373	-0.01099
1726.06516	-0.01154
1724.13660	-0.01223
1722.20804	-0.01311
1720.27947	-0.01420
1718.35091	-0.01575
1716.42234	-0.01819
1714.49378	-0.02109
1712.56521	-0.02235
1710.63665	-0.02017
1708.70808	-0.01576
1706.77952	-0.01196
1704.85096	-0.00991
1702.92239	-0.00895
1700.99383	-0.00826
1699.06526	-0.00757
1697.13670	-0.00684
1695.20813	-0.00610
1693.27957	-0.00549
1691.35100	-0.00502
1689.42244	-0.00466
1687.49388	-0.00434
1685.56531	-0.00404
1683.63675	-0.00387
1681.70818	-0.00386
1679.77962	-0.00387
1677.85105	-0.00382
1675.92249	-0.00377
1673.99392	-0.00376
1672.06536	-0.00376
1670.13680	-0.00377
1668.20823	-0.00382
1666.27967	-0.00389
1664.35110	-0.00395
1662.42254	-0.00401
1660.49397	-0.00408
1658.56541	-0.00412
1656.63684	-0.00403
1654.70828	-0.00386
1652.77972	-0.00378
1650.85115	-0.00388
1648.92259	-0.00393
1646.99402	-0.00390
1645.06546	-0.00391
1643.13689	-0.00394
1641.20833	-0.00393
1639.27976	-0.00384
1637.35120	-0.00371
1635.42264	-0.00365
1633.49407	-0.00368
1631.56551	-0.00372
1629.63694	-0.00372
1627.70838	-0.00370
1625.77981	-0.00366
1623.85125	-0.00363
1621.92269	-0.00362
1619.99412	-0.00362
1618.06556	-0.00357
1616.13699	-0.00356
1614.20843	-0.00362
1612.27986	-0.00368
1610.35130	-0.00370
1608.42273	-0.00370
1606.49417	-0.00369
1604.56561	-0.00369
1602.63704	-0.00368
1600.70848	-0.00366
1598.77991	-0.00364
1596.85135	-0.00363
1594.92278	-0.00364
1592.99422	-0.00363
1591.06565	-0.00360
1589.13709	-0.00359
1587.20853	-0.00359
1585.27996	-0.00360
1583.35140	-0.00359
1581.42283	-0.00357
1579.49427	-0.00352
1577.56570	-0.00344
1575.63714	-0.00342
1573.70857	-0.00346
1571.78001	-0.00347
1569.85145	-0.00346
1567.92288	-0.00349
1565.99432	-0.00352
1564.06575	-0.00350
1562.13719	-0.00339
1560.20862	-0.00324
1558.28006	-0.00325
1556.35149	-0.00338
1554.42293	-0.00349
1552.49437	-0.00354
1550.56580	-0.00357
1548.63724	-0.00359
1546.70867	-0.00359
1544.78011	-0.00357
1542.85154	-0.00352
1540.92298	-0.00349
1538.99441	-0.00357
1537.06585	-0.00370
1535.13729	-0.00374
1533.20872	-0.00375
1531.28016	-0.00378
1529.35159	-0.00380
1527.42303	-0.00374
1525.49446	-0.00365
1523.56590	-0.00355
1521.63733	-0.00347
1519.70877	-0.00346
1517.78021	-0.00351
1515.85164	-0.00357
1513.92308	-0.00361
1511.99451	-0.00364
1510.06595	-0.00361
1508.13738	-0.00353
1506.20882	-0.00352
1504.28025	-0.00362
1502.35169	-0.00371
1500.42313	-0.00370
1498.49456	-0.00364
1496.56600	-0.00361
1494.63743	-0.00364
1492.70887	-0.00368
1490.78030	-0.00368
1488.85174	-0.00369
1486.92317	-0.00373
1484.99461	-0.00378
1483.06605	-0.00382
1481.13748	-0.00384
1479.20892	-0.00385
1477.28035	-0.00386
1475.35179	-0.00386
1473.42322	-0.00386
1471.49466	-0.00393
1469.56610	-0.00402
1467.63753	-0.00409
1465.70897	-0.00413
1463.78040	-0.00422
1461.85184	-0.00433
1459.92327	-0.00440
1457.99471	-0.00448
1456.06614	-0.00471
1454.13758	-0.00507
1452.20902	-0.00540
1450.28045	-0.00562
1448.35189	-0.00582
1446.42332	-0.00606
1444.49476	-0.00630
1442.56619	-0.00638
1440.63763	-0.00632
1438.70906	-0.00637
1436.78050	-0.00674
1434.85194	-0.00719
1432.92337	-0.00722
1430.99481	-0.00676
1429.06624	-0.00631
1427.13768	-0.00611
1425.20911	-0.00611
1423.28055	-0.00624
1421.35198	-0.00651
1419.42342	-0.00683
1417.49486	-0.00699
1415.56629	-0.00689
1413.63773	-0.00653
1411.70916	-0.00599
1409.78060	-0.00539
1407.85203	-0.00490
1405.92347	-0.00457
1403.99490	-0.00437
1402.06634	-0.00425
1400.13778	-0.00416
1398.20921	-0.00409
1396.28065	-0.00403
1394.35208	-0.00401
1392.42352	-0.00400
1390.49495	-0.00399
1388.56639	-0.00397
1386.63782	-0.00398
1384.70926	-0.00401
1382.78070	-0.00405
1380.85213	-0.00409
1378.92357	-0.00416
1376.99500	-0.00428
1375.06644	-0.00451
1373.13787	-0.00479
1371.20931	-0.00504
1369.28074	-0.00531
1367.35218	-0.00573
1365.42362	-0.00617
1363.49505	-0.00640
1361.56649	-0.00638
1359.63792	-0.00611
1357.70936	-0.00550
1355.78079	-0.00478
1353.85223	-0.00428
1351.92366	-0.00405
1349.99510	-0.00396
1348.06654	-0.00391
1346.13797	-0.00388
1344.20941	-0.00386
1342.28084	-0.00385
1340.35228	-0.00385
1338.42371	-0.00391
1336.49515	-0.00408
1334.56659	-0.00446
1332.63802	-0.00505
1330.70946	-0.00570
1328.78089	-0.00631
1326.85233	-0.00689
1324.92376	-0.00741
1322.99520	-0.00773
1321.06663	-0.00782
1319.13807	-0.00774
1317.20951	-0.00760
1315.28094	-0.00752
1313.35238	-0.00762
1311.42381	-0.00790
1309.49525	-0.00829
1307.56668	-0.00895
1305.63812	-0.01000
1303.70955	-0.01065
1301.78099	-0.00971
1299.85243	-0.00756
1297.92386	-0.00575
1295.99530	-0.00488
1294.06673	-0.00464
1292.13817	-0.00466
1290.20960	-0.00476
1288.28104	-0.00482
1286.35247	-0.00480
1284.42391	-0.00470
1282.49535	-0.00457
1280.56678	-0.00445
1278.63822	-0.00435
1276.70965	-0.00427
1274.78109	-0.00423
1272.85252	-0.00419
1270.92396	-0.00414
1268.99539	-0.00410
1267.06683	-0.00407
1265.13827	-0.00404
1263.20970	-0.00399
1261.28114	-0.00395
1259.35257	-0.00392
1257.42401	-0.00391
1255.49544	-0.00390
1253.56688	-0.00389
1251.63831	-0.00389
1249.70975	-0.00389
1247.78119	-0.00388
1245.85262	-0.00388
1243.92406	-0.00387
1241.99549	-0.00385
1240.06693	-0.00383
1238.13836	-0.00381
1236.20980	-0.00380
1234.28123	-0.00379
1232.35267	-0.00378
1230.42411	-0.00377
1228.49554	-0.00375
1226.56698	-0.00374
1224.63841	-0.00373
1222.70985	-0.00373
1220.78128	-0.00373
1218.85272	-0.00374
1216.92415	-0.00373
1214.99559	-0.00372
1213.06703	-0.00372
1211.13846	-0.00372
1209.20990	-0.00372
1207.28133	-0.00370
1205.35277	-0.00369
1203.42420	-0.00369
1201.49564	-0.00370
1199.56708	-0.00370
1197.63851	-0.00371
1195.70995	-0.00372
1193.78138	-0.00372
1191.85282	-0.00371
1189.92425	-0.00371
1187.99569	-0.00371
1186.06712	-0.00372
1184.13856	-0.00373
1182.21000	-0.00375
1180.28143	-0.00377
1178.35287	-0.00379
1176.42430	-0.00379
1174.49574	-0.00378
1172.56717	-0.00378
1170.63861	-0.00378
1168.71004	-0.00377
1166.78148	-0.00377
1164.85292	-0.00378
1162.92435	-0.00379
1160.99579	-0.00381
1159.06722	-0.00381
1157.13866	-0.00379
1155.21009	-0.00378
1153.28153	-0.00378
1151.35296	-0.00380
1149.42440	-0.00382
1147.49584	-0.00384
1145.56727	-0.00387
1143.63871	-0.00388
1141.71014	-0.00388
1139.78158	-0.00389
1137.85301	-0.00388
1135.92445	-0.00388
1133.99588	-0.00389
1132.06732	-0.00389
1130.13876	-0.00389
1128.21019	-0.00390
1126.28163	-0.00391
1124.35306	-0.00392
1122.42450	-0.00392
1120.49593	-0.00390
1118.56737	-0.00389
1116.63880	-0.00390
1114.71024	-0.00392
1112.78168	-0.00392
1110.85311	-0.00389
1108.92455	-0.00386
1106.99598	-0.00385
1105.06742	-0.00384
1103.13885	-0.00381
1101.21029	-0.00378
1099.28172	-0.00378
1097.35316	-0.00379
1095.42460	-0.00379
1093.49603	-0.00379
1091.56747	-0.00379
1089.63890	-0.00379
1087.71034	-0.00378
1085.78177	-0.00378
1083.85321	-0.00380
1081.92464	-0.00381
1079.99608	-0.00382
1078.06752	-0.00381
1076.13895	-0.00380
1074.21039	-0.00382
1072.28182	-0.00387
1070.35326	-0.00390
1068.42469	-0.00396
1066.49613	-0.00404
1064.56756	-0.00418
1062.63900	-0.00448
1060.71044	-0.00515
1058.78187	-0.00621
1056.85331	-0.00701
1054.92474	-0.00691
1052.99618	-0.00611
1051.06761	-0.00528
1049.13905	-0.00473
1047.21049	-0.00443
1045.28192	-0.00426
1043.35336	-0.00416
1041.42479	-0.00410
1039.49623	-0.00409
1037.56766	-0.00414
1035.63910	-0.00425
1033.71053	-0.00448
1031.78197	-0.00489
1029.85341	-0.00535
1027.92484	-0.00562
1025.99628	-0.00558
1024.06771	-0.00534
1022.13915	-0.00502
1020.21058	-0.00470
1018.28202	-0.00445
1016.35345	-0.00429
1014.42489	-0.00421
1012.49633	-0.00416
1010.56776	-0.00411
1008.63920	-0.00407
1006.71063	-0.00405
1004.78207	-0.00404
1002.85350	-0.00404
1000.92494	-0.00409
998.99637	-0.00418
997.06781	-0.00427
995.13925	-0.00437
993.21068	-0.00447
991.28212	-0.00461
989.35355	-0.00477
987.42499	-0.00499
985.49642	-0.00533
983.56786	-0.00578
981.63929	-0.00626
979.71073	-0.00658
977.78217	-0.00661
975.85360	-0.00643
973.92504	-0.00628
971.99647	-0.00636
970.06791	-0.00680
968.13934	-0.00762
966.21078	-0.00876
964.28221	-0.01011
962.35365	-0.01157
960.42509	-0.01309
958.49652	-0.01458
956.56796	-0.01569
954.63939	-0.01599
952.71083	-0.01529
950.78226	-0.01379
948.85370	-0.01192
946.92513	-0.01011
944.99657	-0.00857
943.06801	-0.00736
941.13944	-0.00645
939.21088	-0.00579
937.28231	-0.00530
935.35375	-0.00495
933.42518	-0.00472
931.49662	-0.00456
929.56805	-0.00445
927.63949	-0.00440
925.71093	-0.00435
923.78236	-0.00431
921.85380	-0.00425
919.92523	-0.00420
917.99667	-0.00412
916.06810	-0.00405
914.13954	-0.00401
912.21098	-0.00398
910.28241	-0.00398
908.35385	-0.00402
906.42528	-0.00406
904.49672	-0.00411
902.56815	-0.00417
900.63959	-0.00422
898.71102	-0.00418
896.78246	-0.00405
894.85390	-0.00394
892.92533	-0.00389
890.99677	-0.00388
889.06820	-0.00388
887.13964	-0.00385
885.21107	-0.00382
883.28251	-0.00380
881.35394	-0.00379
879.42538	-0.00381
877.49682	-0.00382
875.56825	-0.00382
873.63969	-0.00379
871.71112	-0.00374
869.78256	-0.00372
867.85399	-0.00373
865.92543	-0.00374
863.99686	-0.00373
862.06830	-0.00372
860.13974	-0.00372
858.21117	-0.00372
856.28261	-0.00374
854.35404	-0.00375
852.42548	-0.00373
850.49691	-0.00367
848.56835	-0.00362
846.63978	-0.00361
844.71122	-0.00365
842.78266	-0.00370
840.85409	-0.00369
838.92553	-0.00366
836.99696	-0.00365
835.06840	-0.00364
833.13983	-0.00361
831.21127	-0.00359
829.28270	-0.00360
827.35414	-0.00362
825.42558	-0.00363
823.49701	-0.00360
821.56845	-0.00358
819.63988	-0.00356
817.71132	-0.00355
815.78275	-0.00359
813.85419	-0.00361
811.92562	-0.00357
809.99706	-0.00354
808.06850	-0.00357
806.13993	-0.00357
804.21137	-0.00353
802.28280	-0.00348
800.35424	-0.00348
798.42567	-0.00352
796.49711	-0.00353
794.56854	-0.00348
792.63998	-0.00347
790.71142	-0.00357
788.78285	-0.00366
786.85429	-0.00363
784.92572	-0.00358
782.99716	-0.00358
781.06859	-0.00360
779.14003	-0.00357
777.21147	-0.00359
775.28290	-0.00363
773.35434	-0.00365
771.42577	-0.00367
769.49721	-0.00369
767.56864	-0.00372
765.64008	-0.00374
763.71151	-0.00370
761.78295	-0.00356
759.85439	-0.00342
757.92582	-0.00340
755.99726	-0.00347
754.06869	-0.00353
752.14013	-0.00356
750.21156	-0.00373
748.28300	-0.00398
746.35443	-0.00403
744.42587	-0.00400
742.49731	-0.00424
740.56874	-0.00457
738.64018	-0.00453
736.71161	-0.00438
734.78305	-0.00450
732.85448	-0.00441
730.92592	-0.00394
728.99735	-0.00381
727.06879	-0.00441
725.14023	-0.00525
723.21166	-0.00624
721.28310	-0.00742
719.35453	-0.00790
717.42597	-0.00754
715.49740	-0.00719
713.56884	-0.00709
711.64027	-0.00708
709.71171	-0.00728
707.78315	-0.00770
705.85458	-0.00809
703.92602	-0.00821
701.99745	-0.00811
700.06889	-0.00807
698.14032	-0.00808
696.21176	-0.00815
694.28319	-0.00855
692.35463	-0.00885
690.42607	-0.00874
688.49750	-0.00870
686.56894	-0.00885
684.64037	-0.00888
682.71181	-0.00882
680.78324	-0.00866
678.85468	-0.00843
676.92611	-0.00841
674.99755	-0.00844
673.06899	-0.00837
671.14042	-0.00842
669.21186	-0.00849
667.28329	-0.00842
665.35473	-0.00846
663.42616	-0.00874
661.49760	-0.00893
659.56903	-0.00892
657.64047	-0.00885
655.71191	-0.00869
653.78334	-0.00852
651.85478	-0.00849
649.92621	-0.00849
647.99765	-0.00852
646.06908	-0.00875
644.14052	-0.00907
642.21195	-0.00916
640.28339	-0.00878
638.35483	-0.00832
636.42626	-0.00825
634.49770	-0.00846
632.56913	-0.00857
630.64057	-0.00846
628.71200	-0.00819
626.78344	-0.00788
624.85488	-0.00769
622.92631	-0.00795
620.99775	-0.00850
619.06918	-0.00888
617.14062	-0.00893
615.21205	-0.00874
613.28349	-0.00850
611.35492	-0.00838
609.42636	-0.00839
607.49780	-0.00840
605.56923	-0.00844
603.64067	-0.00862
601.71210	-0.00883
599.78354	-0.00880
597.85497	-0.00859
595.92641	-0.00851
593.99784	-0.00861
592.06928	-0.00881
590.14072	-0.00904
588.21215	-0.00909
586.28359	-0.00890
584.35502	-0.00866
582.42646	-0.00850
580.49789	-0.00830
578.56933	-0.00804
576.64076	-0.00800
574.71220	-0.00827
572.78364	-0.00844
570.85507	-0.00822
568.92651	-0.00801
566.99794	-0.00823
565.06938	-0.00850
563.14081	-0.00849
561.21225	-0.00839
559.28368	-0.00841
557.35512	-0.00861
555.42656	-0.00877
553.49799	-0.00887
551.56943	-0.00902
549.64086	-0.00904
547.71230	-0.00885
545.78373	-0.00873
543.85517	-0.00869
541.92660	-0.00850
539.99804	-0.00821
538.06948	-0.00817
536.14091	-0.00849
534.21235	-0.00881
532.28378	-0.00884
530.35522	-0.00861
528.42665	-0.00836
526.49809	-0.00844
524.56952	-0.00868
522.64096	-0.00867
520.71240	-0.00860
518.78383	-0.00881
516.85527	-0.00903
514.92670	-0.00902
512.99814	-0.00896
511.06957	-0.00889
509.14101	-0.00874
507.21244	-0.00869
505.28388	-0.00888
503.35532	-0.00887
501.42675	-0.00845
499.49819	-0.00811
497.56962	-0.00823
495.64106	-0.00857
493.71249	-0.00867
491.78393	-0.00855
489.85537	-0.00858
487.92680	-0.00870
485.99824	-0.00862
484.06967	-0.00857
482.14111	-0.00869
480.21254	-0.00869
478.28398	-0.00826
476.35541	-0.00748
474.42685	-0.00727
472.49829	-0.00790
470.56972	-0.00831
468.64116	-0.00822
466.71259	-0.00811
464.78403	-0.00785
462.85546	-0.00763
460.92690	-0.00830
458.99833	-0.00946
457.06977	-0.01001
455.14121	-0.00999
453.21264	-0.00965
451.28408	-0.00906
449.35551	-0.00885
447.42695	-0.00930
445.49838	-0.00987
443.56982	-0.01020
441.64125	-0.01013
439.71269	-0.00931
437.78413	-0.00825
435.85556	-0.00789
433.92700	-0.00807
431.99843	-0.00837
430.06987	-0.00864
428.14130	-0.00867
426.21274	-0.00862
424.28417	-0.00882
422.35561	-0.00917
420.42705	-0.00935
418.49848	-0.00908
416.56992	-0.00861
414.64135	-0.00838
412.71279	-0.00828
410.78422	-0.00824
408.85566	-0.00839
406.92709	-0.00868
404.99853	-0.00898
403.06997	-0.00908
401.14140	-0.00890
399.21284	-0.00869
397.28427	-0.00868
395.35571	-0.00881
393.42714	-0.00893
391.49858	-0.00895
389.57001	-0.00887
387.64145	-0.00865
385.71289	-0.00832
383.78432	-0.00817
381.85576	-0.00821
379.92719	-0.00821
377.99863	-0.00812
376.07006	-0.00808
374.14150	-0.00820
372.21293	-0.00836
370.28437	-0.00857
368.35581	-0.00868
