3997.9	5.563681107158521e-05
3996.0	4.159133570488768e-05
3994.1	3.6116548901125674e-05
3992.1	3.7672311290872766e-05
3990.2	4.1230393255689294e-05
3988.3	4.548120461965791e-05
3986.3	4.563503240582818e-05
3984.4	3.920270454656206e-05
3982.5	3.185243409190585e-05
3980.6	2.5727917742800056e-05
3978.6	2.3514229326056238e-05
3976.7	3.083286876857852e-05
3974.8	4.202026217045953e-05
3972.8	4.6836967009405e-05
3970.9	4.02303932556893e-05
3969.0	2.452204083621656e-05
3967.1	1.7911909750986792e-05
3965.1	3.0449188636031382e-05
3963.2	4.2893041274791674e-05
3961.3	3.843318064421811e-05
3959.3	2.5620033136786706e-05
3957.4	1.881771356171726e-05
3955.5	1.8746484089469323e-05
3953.6	1.8972935042151942e-05
3951.6	2.1331328882608057e-05
3949.7	2.791300131572535e-05
3947.8	3.2960796257492324e-05
3945.8	3.3107353442814675e-05
3943.9	2.5197919204717113e-05
3942.0	1.449861605184932e-05
3940.1	1.7723517372447736e-05
3938.1	3.0142385848642856e-05
3936.2	3.2865820379123823e-05
3934.3	2.9742468690609616e-05
3932.3	3.304719068271526e-05
3930.4	3.749374786803762e-05
3928.5	3.3846181959943465e-05
3926.6	2.8295526533794642e-05
3924.6	2.9043092441888796e-05
3922.7	3.283296135665903e-05
3920.8	3.152793723502752e-05
3918.8	2.1170323083670374e-05
3916.9	8.064675210759703e-06
3915.0	2.2912723551483783e-06
3913.1	6.840222211393201e-06
3911.1	9.485000730958528e-06
3909.2	2.2064275620096473e-06
3907.3	3.098396764290222e-06
3905.3	2.0084571901954118e-05
3903.4	3.380886896350079e-05
3901.5	3.309146727742311e-05
3899.6	2.56236294527557e-05
3897.6	2.3902962818576097e-05
3895.7	3.028802689927391e-05
3893.8	3.573567564933483e-05
3891.8	3.555842307879733e-05
3889.9	3.3958267140977514e-05
3888.0	3.398201354709808e-05
3886.1	3.261844939330442e-05
3884.1	2.8778539057550782e-05
3882.2	2.7098562448223782e-05
3880.3	2.8368627259880122e-05
3878.3	2.9634822864382814e-05
3876.4	3.299468349495638e-05
3874.5	3.7891135909556043e-05
3872.6	4.24059256371522e-05
3870.6	4.312643633351201e-05
3868.7	3.2228288095122035e-05
3866.8	1.924126991861994e-05
3864.8	2.1627113688416755e-05
3862.9	3.1180161785488025e-05
3861.0	3.245834023683057e-05
3859.1	2.835779932751815e-05
3857.1	3.236355928073678e-05
3855.2	4.3449159397690126e-05
3853.3	4.455381804005656e-05
3851.3	3.536606403196723e-05
3849.4	2.81476779884021e-05
3847.5	2.509297792505239e-05
3845.6	2.6752068612640703e-05
3843.6	3.5685103065152754e-05
3841.7	4.6037556649286066e-05
3839.8	5.230386433409672e-05
3837.8	5.205283368256905e-05
3835.9	4.671638809024899e-05
3834.0	3.8596564494907626e-05
3832.1	2.821720189074607e-05
3830.1	2.3456405633253746e-05
3828.2	2.7742093465230733e-05
3826.3	3.4806905121582764e-05
3824.3	4.376724331172944e-05
3822.4	5.0437722333219624e-05
3820.5	4.72471663174309e-05
3818.6	4.461197797378294e-05
3816.6	4.635683933531501e-05
3814.7	4.232054968081474e-05
3812.8	3.81413235222455e-05
3810.8	4.1663978363627496e-05
3808.9	4.5855801374202024e-05
3807.0	4.213671361044781e-05
3805.1	3.48800253398957e-05
3803.1	3.681283075873494e-05
3801.2	4.809156961161734e-05
3799.3	5.566192680668582e-05
3797.3	5.257830027776424e-05
3795.4	4.238401150041421e-05
3793.5	3.419057550801618e-05
3791.6	3.224269772428244e-05
3789.6	3.3015164952974994e-05
3787.7	3.395793577311047e-05
3785.8	3.4107977194093856e-05
3783.8	3.1355543102188e-05
3781.9	2.8586019199844057e-05
3780.0	2.9174577262316645e-05
3778.1	2.9850830856196096e-05
3776.1	3.0157706739437646e-05
3774.2	2.9658247648750058e-05
3772.3	2.6037995224404266e-05
3770.3	2.443158715462208e-05
3768.4	3.0137619999025372e-05
3766.5	4.042848789045368e-05
3764.6	4.4314560693923294e-05
3762.6	4.026892938940597e-05
3760.7	3.93931436089859e-05
3758.8	4.2987037668729586e-05
3756.8	4.690157887042542e-05
3754.9	5.42353199161834e-05
3753.0	6.250280200769935e-05
3751.1	6.391249451781099e-05
3749.1	5.7811247015252605e-05
3747.2	5.3205599142341984e-05
3745.3	4.983925734613321e-05
3743.3	3.8355786755031466e-05
3741.4	2.9642205545538677e-05
3739.5	4.006849081428777e-05
3737.6	5.3168822182154854e-05
3735.6	4.9860250475123e-05
3733.7	3.659821646118607e-05
3731.8	2.8007090297743774e-05
3729.8	3.3133906729691536e-05
3727.9	4.625872520832317e-05
3726.0	5.428355343306856e-05
3724.1	4.90680863505677e-05
3722.1	3.208161882949174e-05
3720.2	1.7714560693923297e-05
3718.3	2.0086945080649096e-05
3716.3	3.493590468300764e-05
3714.4	4.4428809512207025e-05
3712.5	4.262898494225426e-05
3710.6	3.8752492568588264e-05
3708.6	3.702107109789971e-05
3706.7	3.885369134057794e-05
3704.8	4.207503532966229e-05
3702.8	4.3994995370595964e-05
3700.9	4.4206208274450566e-05
3699.0	4.0036903659665706e-05
3697.1	3.142560791384436e-05
3695.1	2.375074801422932e-05
3693.2	2.5794693241070123e-05
3691.3	4.0217845134252685e-05
3689.3	5.2644544612835616e-05
3687.4	4.943718142390721e-05
3685.5	3.758834852102722e-05
3683.6	2.6977428000584768e-05
3681.6	1.9916100579893762e-05
3679.7	2.2795546026022114e-05
3677.8	3.731963354612348e-05
3675.8	4.474943228887485e-05
3673.9	3.659079966863207e-05
3672.0	3.345134740022411e-05
3670.1	3.9172379513668915e-05
3668.1	3.949107255981675e-05
3666.2	3.746204376005067e-05
3664.3	3.501996004093368e-05
3662.3	2.671323034939818e-05
3660.4	2.1533034452512056e-05
3658.5	2.7613790750938065e-05
3656.6	3.759353832659227e-05
3654.6	4.119585790166169e-05
3652.7	4.1386589347497656e-05
3650.8	4.389512694313142e-05
3648.8	3.716033331708978e-05
3646.9	1.6846771599824555e-05
3645.0	3.0325861312801563e-06
3643.1	5.511534525607907e-06
3641.1	1.4228468398226206e-05
3639.2	1.8781214365771646e-05
3637.3	1.798454266361288e-05
3635.3	1.532460893718629e-05
3633.4	1.914557770089177e-05
3631.5	3.623005701476534e-05
3629.6	5.15616344232737e-05
3627.6	4.336077189220794e-05
3625.7	1.833235709760733e-05
3623.8	2.4098387018176416e-06
3621.8	8.143414063642131e-06
3619.9	2.223538326592268e-05
3618.0	2.45094732225525e-05
3616.1	1.3643881877101487e-05
3614.1	3.758808050289929e-06
3612.2	6.210784074850155e-06
3610.3	1.967397300326494e-05
3608.3	3.095432483797085e-05
3606.4	3.2995380342088585e-05
3604.5	2.7472632912626087e-05
3602.6	1.6428780273865796e-05
3600.6	6.2182642171434174e-06
3598.7	1.942395594756581e-06
3596.8	3.8214999269041167e-07
3594.8	-6.656449490765543e-07
3592.9	-1.5411285999707714e-06
3591.0	2.657175576238964e-06
3589.1	1.6427332975975796e-05
3587.1	3.211720189074607e-05
3585.2	3.74522245504605e-05
3583.3	3.0516173675746796e-05
3581.3	2.465832074460309e-05
3579.4	2.7059558501047703e-05
3577.5	2.4312845377905557e-05
3575.6	1.2725296038204761e-05
3573.6	7.91980410311388e-06
3571.7	1.148013254714682e-05
3569.8	1.1813863846791093e-05
3567.8	1.1034291701184139e-05
3565.9	1.5184250280200762e-05
3564.0	1.8996691194386244e-05
3562.1	1.8740149115540174e-05
3560.1	1.959490278251547e-05
3558.2	2.4110213927196525e-05
3556.3	2.4418566346669264e-05
3554.3	1.8201476536231174e-05
3552.4	1.0149583353637736e-05
3550.5	2.320271916573264e-06
3548.6	-3.4644900345987003e-06
3546.6	-4.5593830710004456e-06
3544.7	-4.078178451342533e-06
3542.8	-5.753589006383706e-06
3540.8	-6.529925442229915e-06
3538.9	-2.9064909117489404e-06
3537.0	8.210369865016321e-06
3535.1	2.2435968032746943e-05
3533.1	2.6871697285707324e-05
3531.2	1.7702943326348622e-05
3529.3	6.462034013936941e-06
3527.3	4.82166561083768e-06
3525.4	1.0840305053359968e-05
3523.5	1.2866444130402997e-05
3521.6	9.831328882608057e-06
3519.6	9.311295745821351e-06
3517.7	8.881287461624676e-06
3515.8	2.3411480921982352e-06
3513.8	-3.3270649578480576e-06
3511.9	-1.7318844110910482e-08
3510.0	4.88159933726426e-06
3508.1	2.478582915062618e-06
3506.1	-3.690867891428294e-06
3504.2	-7.1967447980117985e-06
3502.3	-6.757843185029969e-06
3500.3	-5.551425369134062e-06
3498.4	-9.075400808927445e-06
3496.5	-1.391182690902003e-05
3494.6	-9.992105647872912e-06
3492.6	-4.617123921836192e-07
3490.7	6.55978753472053e-06
3488.8	9.783762974513912e-06
3486.8	7.4784269772428225e-06
3484.9	2.672550070659323e-06
3483.0	2.976804249305587e-06
3481.1	7.684459821646118e-06
3479.1	9.129779250523851e-06
3477.2	5.7596315969007346e-06
3475.3	3.818254471029675e-06
3473.3	5.142770820135469e-06
3471.4	9.501549632084206e-06
3469.5	1.1498689147702353e-05
3467.6	5.308279323619706e-06
3465.6	-9.762535938794404e-07
3463.7	-4.093114370644708e-06
3461.8	-1.2289557039130646e-05
3459.8	-1.9070376687295944e-05
3457.9	-1.3390097948443063e-05
3456.0	2.481131523804882e-06
3454.1	1.849180351834706e-05
3452.1	2.466481165635203e-05
3450.2	2.2932639734905705e-05
3448.3	2.3244861361532088e-05
3446.3	2.1926918766141996e-05
3444.4	1.1097992300570145e-05
3442.5	-1.2506554261488233e-06
3440.6	-4.843540763120706e-06
3438.6	-1.448335851079383e-06
3436.7	-1.2511963354612348e-06
3434.8	-1.0583368256907556e-05
3432.8	-2.0103089518054672e-05
3430.9	-2.230610594025633e-05
3429.0	-1.8810901028215e-05
3427.1	-1.0664187905072854e-05
3425.1	-1.7467862189951762e-06
3423.2	2.8059597485502622e-06
3421.3	1.459246625408117e-06
3419.3	-2.288163344866234e-06
3417.4	-3.180507772525706e-06
3415.5	-4.323663564153796e-06
3413.6	-6.9721553530529684e-06
3411.6	-8.469138930851324e-06
3409.7	-1.1724745382778618e-05
3407.8	-1.3991720676380294e-05
3405.8	-8.355835485600117e-06
3403.9	5.464840894693223e-07
3402.0	2.6512353199161737e-07
3400.1	-8.326368110715852e-06
3398.1	-1.180061400516544e-05
3396.2	-8.06349105794065e-06
3394.3	-1.8903269821158836e-06
3392.3	5.381599337264261e-06
3390.4	1.1387476243847763e-05
3388.5	1.3090336728229618e-05
3386.6	1.187471370790897e-05
3384.6	9.915393986647822e-06
3382.7	4.497451391257735e-06
3380.8	-2.4581550606695614e-06
3378.8	-1.3904829199356775e-06
3376.9	4.014853077335411e-06
3375.0	3.0969104819453245e-06
3373.1	-4.028687685785296e-06
3371.1	-1.0441679255396908e-05
3369.2	-1.2564957848058092e-05
3367.3	-8.575785780420056e-06
3365.3	8.313288826080599e-07
3363.4	8.010369865016323e-06
3361.5	6.395443691827882e-06
3359.6	-2.7272939915208855e-06
3357.6	-1.1167433360947323e-05
3355.7	-1.0597441645144e-05
3353.8	-6.140597436772091e-06
3351.8	-5.391408800740702e-06
3349.9	-2.4177038156035293e-06
3348.0	4.281599337264261e-06
3346.1	8.858705716095705e-06
3344.1	1.158198430875688e-05
3342.2	8.62158276887091e-06
3340.3	-2.235105501681208e-06
3338.3	-8.300843038838268e-06
3336.4	-3.1523512499390836e-06
3334.5	7.338599483455969e-06
3332.6	1.726489449831879e-05
3330.6	1.955352565664441e-05
3328.7	1.3875722430680767e-05
3326.8	8.933804395497295e-06
3324.8	6.75832074460309e-06
3322.9	3.0714682520344977e-06
3321.0	2.0744846742361438e-06
3319.1	7.42545197602456e-06
3317.1	1.0336279908386529e-05
3315.2	9.53148482042785e-06
3313.3	1.5586550363042737e-05
3311.3	2.613805857414356e-05
3309.4	3.211354222503777e-05
3307.5	3.321833731299644e-05
3305.6	3.308477169728571e-05
3303.6	3.046435358900638e-05
3301.7	2.1674484674236146e-05
3299.8	9.727771551094e-06
3297.8	4.816402709419618e-06
3295.9	1.1005033867745233e-05
3294.0	2.2298460114029528e-05
3292.1	3.095174699088738e-05
3290.1	3.26343453048097e-05
3288.2	2.7268451829832853e-05
3286.3	1.931338628721797e-05
3284.3	1.6021197797378294e-05
3282.4	1.7576263339993176e-05
3280.5	1.6232566639052675e-05
3278.6	9.112304468593146e-06
3276.6	-1.3200233906729715e-06
3274.7	-7.114146484089469e-06
3272.8	1.1815993372642602e-06
3270.8	1.5758861653915496e-05
3268.9	2.4724755128892354e-05
3267.0	2.5868451829832853e-05
3265.1	2.1094746844695677e-05
3263.1	1.5774328736416356e-05
3261.2	1.1182681155889087e-05
3259.3	1.309760732907753e-05
3257.3	2.5847877783733735e-05
3255.4	3.631199259295356e-05
3253.5	3.4668295892013054e-05
3251.6	2.8847877783733734e-05
3249.6	2.8285541640270942e-05
3247.7	2.8198689147702354e-05
3245.8	1.807417279859656e-05
3243.8	-5.682861458993255e-07
3241.9	-1.3265269723697681e-05
3240.0	-1.0770064811656356e-05
3238.1	2.8574679596510876e-06
3236.1	1.3826918766142e-05
3234.2	1.6391574484674234e-05
3232.3	1.710951708006432e-05
3230.3	1.7764582622679205e-05
3228.4	1.5216631743092442e-05
3226.5	1.3065664441304029e-05
3224.6	1.418059061449247e-05
3222.6	1.2404566054285854e-05
3220.7	6.341148092198234e-06
3218.8	4.993894059743676e-06
3216.8	8.20294332634862e-06
3214.9	6.983222065201499e-06
3213.0	6.338287607816381e-06
3211.1	1.3083762974513912e-05
3209.1	1.4178967886555234e-05
3207.2	5.62568100969738e-06
3205.3	2.577730130110618e-06
3203.3	2.7997709663271764e-06
3201.4	4.0386920715364866e-07
3199.5	4.787705277520588e-06
3197.6	1.4803328297841234e-05
3195.6	2.000990205155694e-05
3193.7	2.193495930997515e-05
3191.8	2.530850835729253e-05
3189.8	2.8431786949953708e-05
3187.9	3.0703016422201646e-05
3186.0	3.23563032990595e-05
3184.1	2.5512606598119e-05
3182.1	1.2646172213829735e-05
3180.2	9.909049266604942e-06
3178.3	1.745274596754544e-05
3176.3	2.1195204912041324e-05
3174.4	1.704779494176697e-05
3172.5	7.519024414014912e-06
3170.6	-2.991647580527265e-06
3168.6	-9.604098240826471e-06
3166.7	-1.1163958871400027e-05
3164.8	-8.990409824082646e-06
3162.8	-4.177959163783442e-06
3160.9	6.736967009405001e-06
3159.0	2.1878885044588472e-05
3157.1	2.7295048974221527e-05
3155.1	2.069450806490912e-05
3153.2	1.4777262316651237e-05
3151.3	1.6235344281467765e-05
3149.3	2.2320803079771943e-05
3147.4	2.5014073388236438e-05
3145.5	2.0546401247502553e-05
3143.6	1.584106525023147e-05
3141.6	1.8501622727937234e-05
3139.7	2.0341221188051267e-05
3137.8	1.1589712976950442e-05
3135.8	-5.223527118561474e-07
3133.9	-4.882910189561911e-06
3132.0	-4.6318892841479345e-07
3130.1	3.3428439159885007e-06
3128.1	3.7238195019735887e-06
3126.2	1.0792188489839677e-05
3124.3	1.671136884167438e-05
3122.3	9.00177866575703e-06
3120.4	-7.850007309585292e-08
3118.5	-4.102870230495588e-07
3116.6	3.6508113639686174e-06
3114.6	5.714926173188441e-06
3112.7	-5.02475512889235e-07
3110.8	-1.002111495541153e-05
3108.8	-1.3022352711856146e-05
3106.9	-1.2701393694264412e-05
3105.0	-1.622235271185615e-05
3103.1	-1.7207426538667708e-05
3101.1	-9.08592661176356e-06
3099.2	-2.38592661176356e-06
3097.3	-7.266068905024127e-07
3095.3	2.3009258808050296e-06
3093.4	4.254422299108238e-07
3091.5	-9.368524925685883e-06
3089.6	-1.364509039520491e-05
3087.6	-7.197139515618148e-06
3085.7	3.1088933287851465e-06
3083.8	9.903557331514057e-06
3081.8	1.1546713123142148e-05
3079.9	1.1479040982408264e-05
3078.0	1.0210671994542176e-05
3076.1	4.279425953900882e-06
3074.1	-2.376877345158618e-06
3072.2	-6.010983870181765e-06
3070.3	-1.1356459236879293e-05
3068.3	-1.662645095268262e-05
3066.4	-1.6646172213829734e-05
3064.5	-1.4668368987866089e-05
3062.6	-1.6009746113737147e-05
3060.6	-1.698221334242971e-05
3058.7	-1.55067296915355e-05
3056.8	-1.4758778811948736e-05
3054.8	-1.1246172213829736e-05
3052.9	-1.271926319380147e-06
3051.0	4.659163783441352e-06
3049.1	-1.7486477267189707e-06
3047.1	-8.947409970274354e-06
3045.2	-8.418639442522295e-06
3043.3	-7.824672286925587e-06
3041.3	-1.1251664148920617e-05
3039.4	-1.528878709614541e-05
3037.5	-1.742165586472394e-05
3035.6	-1.715986063057356e-05
3033.6	-1.1931631012133914e-05
3031.7	-3.1412211880512644e-06
3029.8	-4.4849178889917644e-07
3027.8	-5.6138443545636175e-06
3025.9	-1.2016860776765265e-05
3024.0	-1.7412065688806586e-05
3022.1	-2.089945909068759e-05
3020.1	-1.8150270454656206e-05
3018.2	-1.1368753959358708e-05
3016.3	-9.241221188051265e-06
3014.3	-1.1893967155596706e-05
3012.4	-1.2519721261147117e-05
3010.5	-1.4249032698211589e-05
3008.6	-1.9266975293601676e-05
3006.6	-2.0102319575069442e-05
3004.7	-1.432931143706447e-05
3002.8	-8.727532771307441e-06
3000.8	-7.1760245602066165e-06
2998.9	-1.0376024560206618e-05
2997.0	-1.7180819648165293e-05
2995.1	-2.0080819648165293e-05
2993.1	-1.521136884167438e-05
2991.2	-1.1367672140733882e-05
2989.3	-1.5204795087958676e-05
2987.3	-1.8653286876857853e-05
2985.4	-1.498383607036694e-05
2983.5	-1.0947950879586765e-05
2981.6	-1.1325213196238e-05
2979.6	-1.1612606598119001e-05
2977.7	-9.104795087958677e-06
2975.8	-7.1760245602066165e-06
2973.8	-5.539442522294235e-06
2971.9	-1.957385117684324e-06
2970.0	-2.329852346376882e-06
2968.1	-8.628614589932265e-06
2966.1	-1.1885999707616588e-05
2964.2	-1.1599688124360414e-05
2962.3	-1.3115852053993471e-05
2960.3	-1.23554505141075e-05
2958.4	-8.00943423809756e-06
2956.5	-9.96573753715706e-06
2954.6	-1.8105180059451297e-05
2952.6	-1.7421884898396764e-05
2950.7	-5.32969640855709e-06
2948.8	3.415778958140441e-06
2946.8	1.2415330636908529e-06
2944.9	-4.023122654841382e-06
2943.0	-6.159007845621561e-06
2941.1	-7.946942156814972e-06
2939.1	-1.1016933872618292e-05
2937.2	-1.1024745382778618e-05
2935.3	-6.032015983626529e-06
2933.3	-1.559007845621559e-06
2931.4	5.296233127040587e-07
2929.5	-9.948930364017369e-07
2927.6	-6.572696262365382e-06
2925.6	-6.509819209590175e-06
2923.7	3.4045124506602836e-07
2921.8	3.327303737634617e-06
2919.8	1.151976024560206e-06
2917.9	-2.0880074070464416e-06
2916.0	-4.638277861702648e-06
2914.1	-3.771302568100972e-06
2912.1	-1.06542566151747e-06
2910.2	-2.0378636518688432e-07
2908.3	2.3813166999658667e-07
2906.3	1.0884021246527932e-06
2904.4	7.141562302032063e-07
2902.5	5.088202329321164e-07
2900.6	7.153939866478218e-07
2898.6	-2.0050241216314995e-06
2896.7	-6.422425807709178e-06
2894.8	-8.788319282686029e-06
2892.8	-1.031283563179182e-05
2890.9	-1.3955835485600121e-05
2889.0	-1.766774523658691e-05
2887.1	-1.9533638711563762e-05
2885.1	-2.033665513376541e-05
2883.2	-2.055104039764144e-05
2881.3	-1.7743925734613325e-05
2879.3	-1.1790097948443062e-05
2877.4	-8.751737244773649e-06
2875.5	-8.25227815408606e-06
2873.6	-4.829540470737296e-06
2871.6	-5.002007699429851e-06
2869.7	-1.2607343696700943e-05
2867.8	-1.820610594025632e-05
2865.8	-1.6188163344866233e-05
2863.9	-8.615155206861265e-06
2862.0	1.4093611422445302e-06
2860.1	7.874016860776763e-06
2858.1	6.693197212611471e-06
2856.2	3.899230057014763e-06
2854.3	5.637590760684175e-06
2852.3	8.247180936601528e-06
2850.4	8.019648165294089e-06
2848.5	6.17417279859656e-06
2846.6	6.667599044880853e-06
2844.6	1.097115637639491e-05
2842.7	1.3279508795867647e-05
2840.8	9.987320306027972e-06
2838.8	2.761025291165146e-06
2836.9	-4.250343550509235e-06
2835.0	-5.985687831977005e-06
2833.1	-2.5599337264265916e-06
2831.1	1.3867793967155593e-06
2829.2	2.64362360508747e-06
2827.3	8.345743384825304e-07
2825.3	-4.181716290629125e-07
2823.4	1.9626480191023803e-06
2821.5	3.5171726524048524e-06
2819.6	-4.6720432727450186e-07
2817.6	-5.982130500462941e-06
2815.7	-1.041979435700015e-05
2813.8	-1.316225330149603e-05
2811.8	-1.2441294283904298e-05
2809.9	-1.247184347741338e-05
2808.0	-1.7328687685785294e-05
2806.1	-2.086758929876712e-05
2804.1	-1.706526972369768e-05
2802.2	-9.993499342137327e-06
2800.3	-7.040212465279471e-06
2798.3	-8.195278007894355e-06
2796.4	-5.665966570829881e-06
2794.5	5.974513912577354e-07
2792.6	2.439369426441205e-06
2790.6	3.963344866234587e-06
2788.7	8.016631743092442e-06
2786.8	6.9375907606841746e-06
2784.8	1.203484235661028e-06
2782.9	-3.841991131036499e-06
2781.0	-5.853359972710887e-06
2779.1	-2.0030895180546775e-06
2777.1	2.9825252180692937e-06
2775.2	8.143121680229979e-07
2773.3	-5.97663856537206e-06
2771.3	-8.702392670922471e-06
2769.4	-7.85993372642659e-06
2767.5	-8.637196043077822e-06
2765.6	-1.1297056673651382e-05
2763.6	-1.060185176161006e-05
2761.7	-2.904868183811707e-06
2759.8	3.9077384143072964e-06
2757.8	3.074869645728764e-06
2755.9	2.0778860679304102e-06
2754.0	5.79103357536182e-06
2752.1	7.199385994834558e-06
2750.1	1.7897958189172055e-06
2748.2	-3.2233516885142053e-06
2746.3	9.539106281370282e-07
2744.3	1.0547877783733734e-05
2742.4	1.4738828517128793e-05
2740.5	1.0513074411578383e-05
2738.6	1.6897958189172064e-06
2736.6	-4.584990984844795e-06
2734.7	-2.3849909848447955e-06
2732.8	3.7922713318064393e-06
2730.8	8.298304176209737e-06
2728.9	1.1409673017884116e-05
2727.0	1.3345558208664295e-05
2725.1	1.2310213927196527e-05
2723.1	8.237746698503972e-06
2721.2	4.58500073095853e-06
2719.3	3.632254763413089e-06
2717.3	4.5065006578626735e-06
2715.4	9.537049851371766e-06
2713.5	1.75580088689635e-05
2711.6	2.029513181618829e-05
2709.6	1.5275951464353585e-05
2707.7	1.0784303883826323e-05
2705.8	1.1816631743092443e-05
2703.8	1.5861566200477558e-05
2701.9	2.0477189220798204e-05
2700.0	2.063473027630232e-05
2698.1	1.2679664733687443e-05
2696.1	4.231172944788265e-06
2694.2	4.856927050338678e-06
2692.3	1.2232951610545294e-05
2690.3	1.851554992446762e-05
2688.4	2.2038287607816382e-05
2686.5	2.3067058135568443e-05
2684.6	2.106172213829735e-05
2682.6	1.8097066419765117e-05
2680.7	1.6479664733687442e-05
2678.8	1.845267287169241e-05
2676.8	2.23706154670825e-05
2674.9	2.2415549924467618e-05
2673.0	1.967309097997173e-05
2671.1	1.6416246771599825e-05
2669.1	1.0972550070659323e-05
2667.2	8.298304176209737e-06
2665.3	8.8402222113932e-06
2663.3	6.200082841966766e-06
2661.4	4.282681155889089e-06
2659.5	1.1944320452219674e-05
2657.6	2.2896369572632912e-05
2655.6	2.2899926904146968e-05
2653.7	1.72454022708445e-05
2651.8	1.654416451439988e-05
2649.8	1.4877730130110617e-05
2647.9	1.0483222065201498e-05
2646.0	1.1935968032746942e-05
2644.1	1.745568929389406e-05
2642.1	1.794308269577506e-05
2640.2	1.2002402417036207e-05
2638.3	8.098845085522146e-06
2636.3	1.0386238487403145e-05
2634.4	1.1919107255981674e-05
2632.5	1.1892115393986647e-05
2630.6	1.6500467813459382e-05
2628.6	2.182622191900979e-05
2626.7	2.265143511524779e-05
2624.8	2.1576648311485793e-05
2622.8	1.8710213927196526e-05
2620.9	1.3640763120705619e-05
2619.0	1.0839525364260995e-05
2617.1	1.1535271185614734e-05
2615.1	1.1677189220798205e-05
2613.2	9.791033575361819e-06
2611.3	7.727615613274207e-06
2609.3	7.115009015155203e-06
2607.4	1.1444861361532088e-05
2605.5	1.8956771112518883e-05
2603.6	1.8516631743092443e-05
2601.6	1.1793894059743676e-05
2599.7	1.1746640027289116e-05
2597.8	1.6357467959651087e-05
2595.8	1.4126918766141998e-05
2593.9	7.809517080064322e-06
2592.0	7.501164660591586e-06
2590.1	1.26958286633205e-05
2588.1	1.7486238487403147e-05
2586.2	1.9347877783733737e-05
2584.3	1.9683762974513912e-05
2582.3	2.0293894059743676e-05
2580.4	1.910704156717509e-05
2578.5	1.743457433848253e-05
2576.6	1.8750738268115588e-05
2574.6	1.9718410408849466e-05
2572.7	1.8560328444032942e-05
2570.8	1.7390877637542028e-05
2568.8	1.8469918619950292e-05
2566.9	2.1541148092198236e-05
2565.0	2.257827103942303e-05
2563.1	2.0400467813459382e-05
2561.1	1.6582525218069294e-05
2559.2	1.350704156717509e-05
2557.3	1.603813166999659e-05
2555.3	2.007703328297841e-05
2553.4	1.6356074265386677e-05
2551.5	8.00936114224453e-06
2549.6	4.506344720042881e-06
2547.6	1.0093738121923881e-05
2545.7	1.925839384045612e-05
2543.8	2.1338672579309004e-05
2541.8	1.6205803810730472e-05
2539.9	1.1750738268115587e-05
2538.0	8.30580381073047e-06
2536.1	6.244705423712294e-06
2534.1	9.231557916280883e-06
2532.2	1.2579508795867647e-05
2530.3	1.0750197358803178e-05
2528.3	7.314853077335411e-06
2526.4	7.3315579162808825e-06
2524.5	8.418951318161882e-06
2522.6	8.507582476487499e-06
2520.6	1.0081828370937087e-05
2518.7	1.1988402124652795e-05
2516.8	1.2912918473758588e-05
2514.8	1.6110442960869353e-05
2512.9	1.9504410116466058e-05
2511.0	1.576852492568588e-05
2509.1	7.96798401637347e-06
2507.1	3.68059061449247e-06
2505.2	2.978811948735442e-06
2503.3	4.948262755226353e-06
2501.3	8.388943033965206e-06
2499.4	9.45537741825447e-06
2497.5	6.445787242337117e-06
2495.6	1.7894839432776179e-06
2493.6	-3.292573461332294e-06
2491.7	-8.74586033819015e-06
2489.8	-1.1107499634520735e-05
2487.8	-6.812294722479412e-06
2485.9	8.044101164660588e-07
2484.0	4.385229764631353e-06
2482.1	2.451123239608206e-06
2480.1	-7.423030066760887e-07
2478.2	-3.012991569611618e-06
2476.3	-3.550114516836411e-06
2474.3	8.402953072462353e-07
2472.4	7.798918181375177e-06
2470.5	9.476721407338823e-06
2468.6	6.102475512889234e-06
2466.6	2.6701476536231177e-06
2464.7	2.203713269333853e-06
2462.8	3.6935821841040888e-06
2460.8	2.788787096145412e-06
2458.9	-1.657375371570586e-07
2457.0	-6.286145899322657e-07
2455.1	2.053442814677647e-06
2453.1	3.937278885044588e-06
2451.2	4.890565761902441e-06
2449.3	6.732483797085912e-06
2447.3	7.934262462842942e-06
2445.4	5.688090249013206e-06
2443.5	2.5754105550411767e-08
2441.6	-1.153286876857853e-06
2439.6	3.2078115101603235e-06
2437.7	2.6353442814677646e-06
2435.8	-3.972467228692559e-06
2433.8	-5.619180351834706e-06
2431.9	1.2628770527752058e-06
2430.0	6.126991861995029e-06
2428.1	5.096730178841201e-08
2426.1	-9.392188489839677e-06
2424.2	-1.4222196774036354e-05
2422.3	-1.3992885336971882e-05
2420.3	-1.0630008284196676e-05
2418.4	-7.922196774036353e-06
2416.5	-9.306573753715705e-06
2414.6	-1.3879581891720677e-05
2412.6	-1.5924516349105795e-05
2410.7	-1.1359319721261147e-05
2408.8	-5.213844354563618e-06
2406.8	-4.431786949953706e-06
2404.9	-6.8371229472247946e-06
2403.0	-6.869991715803324e-06
2401.1	-5.166975293601677e-06
2399.1	-3.834106525023147e-06
2397.2	-3.4090492666049413e-06
2395.3	-4.100696847132206e-06
2393.3	-6.539598460114029e-06
2391.4	-6.350967301788412e-06
2389.5	-7.282296184396471e-07
2387.6	2.4058769065835002e-06
2385.6	9.190244140149119e-07
2383.7	-2.4971395156181474e-06
2381.8	-1.1015623020320649e-05
2379.8	-1.94310901028215e-05
2377.9	-1.8397524487110766e-05
2376.0	-1.189272939915209e-05
2374.1	-9.639983431606647e-06
2372.1	-1.2399147215048004e-05
2370.2	-1.4564884752205056e-05
2368.3	-1.4462409239315824e-05
2366.3	-1.3798294430096e-05
2364.4	-1.4924589444958826e-05
2362.5	-1.4579654987573702e-05
2360.6	-9.255138638467916e-06
2358.6	-3.6162370254860886e-06
2356.7	-5.258272014034401e-07
2354.8	1.98963988109741e-06
2352.8	4.167287169241265e-06
2350.9	5.610827932361971e-06
2349.0	7.533565615710736e-06
2347.1	8.843852638760294e-06
2345.1	8.954139661809853e-06
2343.2	9.42606598119e-06
2341.3	8.274016860776764e-06
2339.3	6.517713561717263e-06
2337.4	7.387705277520588e-06
2335.5	6.121811802543736e-06
2333.6	-1.8332537400711484e-06
2331.6	-1.1142843915988499e-05
2329.7	-1.53680571122265e-05
2327.8	-1.718012280103309e-05
2325.8	-1.906341796208762e-05
2323.9	-1.9769450806490912e-05
2322.0	-2.024315579162809e-05
2320.1	-2.0246172213829733e-05
2318.1	-1.8881516495297504e-05
2316.2	-1.720850835729253e-05
2314.3	-1.5866049412796646e-05
2312.3	-1.5593041274791674e-05
2310.4	-1.5063729837727207e-05
2308.5	-1.3878115101603235e-05
2306.6	-1.3132639734905704e-05
2304.6	-1.2832098825593293e-05
2302.7	-1.3891418546854442e-05
2300.8	-1.7702787388528823e-05
2298.8	-2.067100043857512e-05
2296.9	-1.8093738121923884e-05
2295.0	-1.0857852931143705e-05
2293.1	-5.757852931143705e-06
2291.1	-7.79551678768091e-06
2289.2	-1.2645787242337117e-05
2287.3	-1.5774557770089178e-05
2285.3	-1.4006344720042882e-05
2283.4	-7.4752546172213825e-06
2281.5	-3.930320159836264e-06
2279.6	-7.697295453437941e-06
2277.6	-1.3965508503484233e-05
2275.7	-1.8278115101603233e-05
2273.8	-2.0361410262657767e-05
2271.8	-2.1211139808001558e-05
2269.9	-1.952552507187759e-05
2268.0	-1.5910598898689147e-05
2266.1	-1.3686082549583352e-05
2264.1	-1.2866902197748646e-05
2262.2	-1.210580381073047e-05
2260.3	-1.2776492373666001e-05
2258.3	-1.496156620047756e-05
2256.4	-1.798554164027094e-05
2254.5	-2.04580088689635e-05
2252.6	-2.1590336728229618e-05
2250.6	-2.37454022708445e-05
2248.7	-2.721786949953706e-05
2246.8	-2.811253350226597e-05
2244.8	-2.6347877783733737e-05
2242.9	-2.4669377710637883e-05
2241.0	-2.7244164514399884e-05
2239.1	-3.281539398664782e-05
2237.1	-3.4421967740363527e-05
2235.2	-3.301717265240485e-05
2233.3	-3.326868086350568e-05
2231.3	-3.542320549680815e-05
2229.4	-3.659211539398665e-05
2227.5	-3.3401705569904e-05
2225.6	-2.892320549680815e-05
2223.6	-2.828360703669412e-05
2221.7	-3.065004142098338e-05
2219.8	-3.219977096632718e-05
2217.8	-3.081717265240485e-05
2215.9	-2.7338131669996586e-05
2214.0	-2.5130320159836263e-05
2212.1	-2.636264801910238e-05
2210.1	-2.932196774036353e-05
2208.2	-3.1720189074606504e-05
2206.3	-3.286566444130403e-05
2204.3	-3.1628541494079234e-05
2202.4	-2.7331017006968472e-05
2200.5	-2.1949656449490763e-05
2198.6	-1.833828760781638e-05
2196.6	-1.6077189220798205e-05
2194.7	-1.2777189220798205e-05
2192.8	-8.168836801325471e-06
2190.8	-3.5281565225866203e-06
2188.9	-2.4473368744213235e-06
2187.0	-8.232951610545295e-06
2185.1	-1.8444861361532087e-05
2183.1	-2.3835812094927148e-05
2181.2	-2.1495672725500706e-05
2179.3	-1.7484303883826323e-05
2177.3	-1.431786949953706e-05
2175.4	-1.1551435115247792e-05
2173.5	-8.995131816188293e-06
2171.6	-9.514853077335412e-06
2169.6	-1.4295672725500705e-05
2167.7	-1.6511836655133766e-05
2165.8	-1.5529779250523852e-05
2163.8	-1.6896213634813116e-05
2161.9	-2.005607426538668e-05
2160.0	-2.3450041420983384e-05
2158.1	-2.493140197846109e-05
2156.1	-2.151701671458506e-05
2154.2	-1.6577574192290822e-05
2152.3	-1.5284844793138735e-05
2150.3	-1.6331557916280883e-05
2148.4	-1.8590180790409824e-05
2146.5	-2.310990205155694e-05
2144.6	-2.5791959456166857e-05
2142.6	-2.1797992300570145e-05
2140.7	-1.5786623458895764e-05
2138.8	-1.5029082403391647e-05
2136.8	-1.6918254471029677e-05
2134.9	-1.592606598119e-05
2133.0	-1.263689391355197e-05
2131.1	-1.2578811948735442e-05
2129.1	-1.5588943033965208e-05
2127.2	-1.74445494858925e-05
2125.3	-1.787262316651235e-05
2123.3	-1.6582213342429705e-05
2121.4	-1.1328385556259442e-05
2119.5	-8.108664295112324e-06
2117.6	-1.1473320013644558e-05
2115.6	-1.6794819940548704e-05
2113.7	-1.967618049802641e-05
2111.8	-1.8386311583256178e-05
2109.8	-1.0698918181375176e-05
2107.9	-1.7804346766726758e-06
2106.0	-7.205740460991177e-07
2104.1	-6.951664148920617e-06
2102.1	-9.080975585985089e-06
2100.2	4.513522732810299e-07
2098.3	1.5686696554748795e-05
2096.3	2.7874786803761996e-05
2094.4	3.352822961843965e-05
2092.5	2.7781287461624678e-05
2090.6	4.082608060036058e-06
2088.6	-2.788946445105014e-05
2086.7	-2.925527508406023e-05
2084.8	1.8764290239267087e-05
2082.8	7.611981384922761e-05
2080.9	9.768794405730716e-05
2079.0	8.137486964572877e-05
2077.1	4.516852492568588e-05
2075.1	7.704795087958677e-06
2073.2	-1.4945631304517323e-05
2071.3	-1.8672623166512353e-05
2069.3	-1.1883451098874324e-05
2067.4	-2.936197066419765e-06
2065.5	5.7625651771356175e-06
2063.6	1.4564343842892645e-05
2061.6	2.2512294722479414e-05
2059.7	2.859860630573559e-05
2057.8	3.1730393255689293e-05
2055.8	3.0875327713074415e-05
2053.9	2.7553827786170263e-05
2052.0	2.667068856293553e-05
2050.1	3.004261488231568e-05
2048.1	3.4189328005457824e-05
2046.2	3.7065352565664446e-05
2044.3	3.780727060084791e-05
2042.3	3.6439057550801616e-05
2040.4	3.5219336289654506e-05
2038.5	3.394207397300326e-05
2036.6	2.9018098533209883e-05
2034.6	2.0743852638760293e-05
2032.7	1.4758237902636323e-05
2030.8	1.7111524779494178e-05
2028.8	2.5587549339700798e-05
2026.9	3.125220505823303e-05
2025.0	3.0603713269333847e-05
2023.1	2.7795360849861118e-05
2021.1	2.2288246186833002e-05
2019.2	1.5245246333024705e-05
2017.3	1.6251279177428e-05
2015.3	2.3464967594171826e-05
2013.4	2.4641533063690855e-05
2011.5	1.8962492081282588e-05
2009.6	1.2093041274791677e-05
2007.6	7.2253691340577934e-06
2005.7	6.841533063690853e-06
2003.8	9.954139661809854e-06
2001.8	1.0208123385799912e-05
1999.9	6.531557916280883e-06
1998.0	5.423746406120561e-06
1996.1	7.5740168607767635e-06
1994.1	7.537049851371765e-06
1992.2	8.267754982700647e-06
1990.3	1.4686238487403147e-05
1988.3	2.0850738268115585e-05
1986.4	2.0261410262657764e-05
1984.5	1.5773320013644557e-05
1982.6	1.1502631450709029e-05
1980.6	6.983451098874324e-06
1978.7	1.7493445738511764e-06
1976.8	-1.6433848253009107e-06
1974.8	-4.810486818381179e-07
1972.9	3.3866234588957645e-06
1971.0	7.92977925052385e-06
1969.1	1.589636957263291e-05
1967.1	2.4223361434627942e-05
1965.2	2.508430388382632e-05
1963.3	1.9338672579309002e-05
1961.4	1.552250864967594e-05
1959.4	1.5004566054285853e-05
1957.5	1.3925525071877589e-05
1955.6	1.3432098825593292e-05
1953.6	1.4261410262657766e-05
1951.7	1.4158393840456118e-05
1949.8	1.2347024998781737e-05
1947.9	1.056210710978997e-05
1945.9	1.083666487987915e-05
1944.0	1.118013254714682e-05
1942.1	8.472321036986501e-06
1940.1	5.361722138297353e-06
1938.2	7.888943033965206e-06
1936.3	1.6312221626626382e-05
1934.4	2.244277082013547e-05
1932.4	2.0708664295112325e-05
1930.5	1.5305106963598264e-05
1928.6	1.0175795526533794e-05
1926.6	5.237590760684175e-06
1924.7	4.812148530773353e-06
1922.8	1.2504648896252617e-05
1920.9	2.1995370595974856e-05
1918.9	2.656281370303591e-05
1917.0	2.6266215096730177e-05
1915.1	2.3450509234442765e-05
1913.1	1.9299230057014762e-05
1911.2	1.771609083378003e-05
1909.3	2.16832220652015e-05
1907.4	2.3800467813459383e-05
1905.4	1.8347024998781737e-05
1903.5	1.1976877345158619e-05
1901.6	1.0506188782223089e-05
1899.6	1.0854139661809852e-05
1897.7	1.1214156230203207e-05
1895.8	1.1464582622679206e-05
1893.9	1.1235271185614734e-05
1891.9	1.0124058281760148e-05
1890.0	8.067370011208031e-06
1888.1	6.2395253642609965e-06
1886.1	1.6694508064909118e-06
1884.2	-1.0950197358803178e-05
1882.3	-2.825654207884606e-05
1880.4	-3.983040300180303e-05
1878.4	-3.936574728327079e-05
1876.5	-2.982792748891379e-05
1874.6	-1.8358861653915498e-05
1872.6	-9.496442668485942e-06
1870.7	-2.8801130549193517e-06
1868.8	1.3203547585400975e-07
1866.9	1.1697724282442324e-06
1864.9	7.257467959651087e-06
1863.0	1.614153306369085e-05
1861.1	2.0383451098874324e-05
1859.1	2.1400852784951997e-05
1857.2	2.195947565908094e-05
1855.3	2.1192885336971886e-05
1853.4	1.9020959017591737e-05
1851.4	1.581028702304956e-05
1849.5	1.4835271185614735e-05
1847.6	1.664664977340286e-05
1845.6	1.872864382827347e-05
1843.7	2.0818127771551074e-05
1841.8	2.2594215681496996e-05
1839.9	2.262568100969738e-05
1837.9	2.136071341552556e-05
1836.0	1.6291262609034647e-05
1834.1	9.233492519857703e-06
1832.1	7.083075873495437e-06
1830.2	7.264290239267079e-06
1828.3	4.677978656010902e-06
1826.4	2.7949125286292056e-06
1824.4	2.5853954485648747e-06
1822.5	9.95287754008089e-07
1820.6	1.2467228692558837e-07
1818.6	-1.0231957506944127e-07
1816.7	-1.6556064519272945e-06
1814.8	-2.964499780712441e-06
1812.9	-3.4695239023439437e-06
1810.9	-5.375244871107646e-06
1809.0	-8.8167779347985e-06
1807.1	-1.3629696408557087e-05
1805.1	-1.8284065104039764e-05
1803.2	-1.6977949417669706e-05
1801.3	-1.0929374786803768e-05
1799.4	-8.028292968178944e-06
1797.4	-1.014121144193753e-05
1795.5	-1.1682193850202235e-05
1793.6	-8.30306027971349e-06
1791.6	-4.394551922420959e-06
1789.7	-7.075620096486538e-06
1787.8	-1.2683597290580379e-05
1785.9	-1.3063179182301067e-05
1783.9	-1.0501383948150681e-05
1782.0	-1.0260859607231621e-05
1780.1	-9.268286145899325e-06
1778.1	-6.448023975439792e-06
1776.2	-5.422260123775652e-06
1774.3	-5.906149797768151e-06
1772.4	-9.327016227279395e-06
1770.4	-1.436275522635351e-05
1768.5	-1.7111495541152972e-05
1766.6	-2.166100579893768e-05
1764.6	-2.701228497636567e-05
1762.7	-2.6112046196579104e-05
1760.8	-2.2261619804103118e-05
1758.9	-1.8075391062813702e-05
1756.9	-1.2782276692169008e-05
1755.0	-1.0453350226597136e-05
1753.1	-1.2043438428926484e-05
1751.1	-1.5244739535110415e-05
1749.2	-1.9191920471711926e-05
1747.3	-2.141459480532138e-05
1745.4	-2.146471906827153e-05
1743.4	-2.2493874567516215e-05
1741.5	-2.3331143706447062e-05
1739.6	-2.2834774133814146e-05
1737.6	-1.8880395692217757e-05
1735.7	-9.946644900345978e-06
1733.8	-5.640363530042393e-06
1731.9	-1.116011402953074e-05
1729.9	-1.6475464158666737e-05
1728.0	-1.8479966863213295e-05
1726.1	-2.004400857658009e-05
1724.1	-1.91193362896545e-05
1722.2	-1.4984679109205205e-05
1720.3	-6.780936601530151e-06
1718.4	6.506880756298387e-06
1716.4	1.7287315432971056e-05
1714.5	1.9969416695092817e-05
1712.6	1.8136362750353295e-05
1710.6	1.9691959456166854e-05
1708.7	3.195491935090882e-05
1706.8	5.3496462160713403e-05
1704.9	7.53008820232932e-05
1702.9	9.356270649578479e-05
1701.0	0.00010570551630037519
1699.1	0.00011100475610350372
1697.1	0.00011694805808683788
1695.2	0.00011835344768773448
1693.3	0.00010589771940938548
1691.4	9.230210028751035e-05
1689.4	9.04432483797086e-05
1687.5	9.59281224111885e-05
1685.6	9.817635105501679e-05
1683.6	8.792267920666635e-05
1681.7	7.062062277666781e-05
1679.8	6.036026509429364e-05
1677.9	5.8475118171629056e-05
1675.9	5.666453876516739e-05
1674.0	4.922525218069296e-05
1672.1	3.934180108181861e-05
1670.1	3.3274596754544116e-05
1668.2	3.042361970664197e-05
1666.3	2.9265830125237557e-05
1664.4	3.101610057989376e-05
1662.4	3.0366142000877145e-05
1660.5	2.4247648750060915e-05
1658.6	2.2531172944788266e-05
1656.6	3.295325276545975e-05
1654.7	4.888480580868374e-05
1652.8	5.3569908873836545e-05
1650.9	4.18917450416646e-05
1648.9	3.2159763169436204e-05
1647.0	3.263223039812874e-05
1645.1	2.9288056137615113e-05
1643.1	2.092870717801276e-05
1641.2	2.107084450075532e-05
1639.3	3.135067491837629e-05
1637.4	4.0874918376297456e-05
1635.4	3.874144534866719e-05
1633.5	2.8928268602894556e-05
1631.6	2.6285468544417915e-05
1629.6	3.2749500511670976e-05
1627.7	3.822684567028897e-05
1625.8	3.607928950830856e-05
1623.9	2.7209921543784414e-05
1621.9	2.004765849617465e-05
1620.0	2.3076896837386087e-05
1618.1	3.2294941766970424e-05
1616.1	3.3446532820038e-05
1614.2	2.2828020076994292e-05
1612.3	1.1756303299059501e-05
1610.4	6.7211880512645564e-06
1608.4	3.2470980946347655e-06
1606.5	-2.7422299108230594e-06
1604.6	-1.0821967740363529e-05
1602.6	-1.4968680863505678e-05
1600.7	-1.1901705569904e-05
1598.8	-8.853910628137029e-06
1596.9	-9.481443399444471e-06
1594.9	-9.077189220798204e-06
1593.0	-1.0875410555041175e-05
1591.1	-2.0871312314214702e-05
1589.1	-3.5049271477998145e-05
1587.2	-4.498709127235515e-05
1585.3	-4.809969787047415e-05
1583.4	-4.690627162418986e-05
1581.4	-4.101129574582135e-05
1579.5	-2.9172915549924473e-05
1577.6	-1.8811008235466135e-05
1575.6	-1.911471175868623e-05
1573.7	-2.171195360849864e-05
1571.8	-1.56403489108718e-05
1569.9	-1.0553413576336445e-05
1567.9	-1.8135012913600712e-05
1566.0	-2.9648867014278058e-05
1564.1	-3.2106398323668436e-05
1562.1	-1.950959504897428e-05
1560.2	-8.289362116856765e-07
1558.3	0.0
1556.4	-1.8929287071780133e-05
1554.4	-3.7749597972808375e-05
1552.5	-4.543585595243899e-05
1550.6	-4.299549729545345e-05
1548.6	-3.640895667852446e-05
1546.7	-2.9800979484430595e-05
1544.8	-2.43753520783588e-05
1542.9	-2.0659763169436304e-05
1540.9	-1.7860421032113492e-05
1539.0	-1.899198869450815e-05
1537.1	-2.8422513522732834e-05
1535.1	-3.902323960820621e-05
1533.2	-4.44682569075581e-05
1531.3	-4.70263486184884e-05
1529.4	-4.662434091905853e-05
1527.4	-4.2616904634277074e-05
1525.5	-3.6493221577895806e-05
1523.6	-2.787641440475609e-05
1521.6	-2.021970664197652e-05
1519.7	-1.8533716680473695e-05
1517.8	-2.3882851712879558e-05
1515.9	-3.365378880171532e-05
1513.9	-3.8030364017348084e-05
1512.0	-3.2522240631548214e-05
1510.1	-2.7143482286438278e-05
1508.1	-2.549649139905471e-05
1506.2	-2.6366858340236884e-05
1504.3	-3.099590663223044e-05
1502.4	-3.620082354661079e-05
1500.4	-3.512031577408508e-05
1498.5	-2.6743033965206405e-05
1496.6	-1.8615262414112396e-05
1494.6	-2.0223863359485425e-05
1492.7	-2.785511914624045e-05
1490.8	-3.268705228790021e-05
1488.9	-3.542015009015154e-05
1486.9	-3.8517455289703234e-05
1485.0	-3.960849861117879e-05
1483.1	-3.926202426782321e-05
1481.1	-3.743147507431412e-05
1479.2	-3.262605623507627e-05
1477.3	-2.6052414599678374e-05
1475.4	-1.6772189464451067e-05
1473.4	-6.475498270064838e-06
1471.5	-3.6482871205107195e-06
1469.6	-4.240348910871793e-06
1467.6	1.0122674333609469e-05
1465.7	4.237937235027531e-05
1463.8	6.81218312947712e-05
1461.9	6.633126553286876e-05
1459.9	4.477305686857365e-05
1458.0	2.979366989912767e-05
1456.1	2.8624989035621972e-05
1454.1	1.8056654159154e-05
1452.2	-3.4832610496564673e-07
1450.3	-1.127138053701088e-06
1448.4	6.358403586569853e-06
1446.4	-1.9790312362945322e-06
1444.5	-2.0946245309682766e-05
1442.6	-3.495367184835047e-05
1440.6	-3.6322727937235035e-05
1438.7	-2.540375712684569e-05
1436.8	-1.6332975975829673e-05
1434.9	-1.763043711320111e-05
1432.9	-1.9187300813800502e-05
1431.0	-1.7588465474392095e-05
1429.1	-1.994848204278544e-05
1427.1	-2.551646605915891e-05
1425.2	-2.3624662540811855e-05
1423.3	-1.0027825154719554e-05
1421.4	3.912177769114546e-06
1419.4	8.33183568052238e-06
1417.5	7.100423955947561e-06
1415.6	6.4311826909020046e-06
1413.6	6.058008868963501e-06
1411.7	6.072779104332148e-06
1409.8	8.483607036694118e-06
1407.9	1.3227074703961791e-05
1405.9	1.5712616344232736e-05
1404.0	1.3930018030310408e-05
1402.1	1.3652214804346759e-05
1400.1	1.6124223965693678e-05
1398.2	1.1784323376053793e-05
1396.3	1.3398567321280526e-06
1394.4	-5.789766580576017e-06
1392.4	-1.1245382778617029e-05
1390.5	-1.946912918473758e-05
1388.6	-2.2268890404951028e-05
1386.6	-1.369874275132792e-05
1384.7	-4.078334389162319e-06
1382.8	-4.293499342137327e-06
1380.9	-8.65815506066956e-06
1378.9	-9.314146484089472e-06
1377.0	-7.825588421616883e-06
1375.1	-4.537030359144297e-06
1373.1	1.87897763266897e-06
1371.2	3.947804687880705e-06
1369.3	-1.0401539885970576e-07
1367.4	-6.770235368646778e-07
1365.4	5.528239364553384e-06
1363.5	1.1909141854685446e-05
1361.6	1.62066663417962e-05
1359.6	2.009931289898153e-05
1357.7	1.9970615467082498e-05
1355.8	1.1451279177427997e-05
1353.9	-1.4703766872959416e-06
1351.9	-1.0462024267823208e-05
1350.0	-1.5006261878076118e-05
1348.1	-1.856488475220506e-05
1346.1	-2.0284065104039765e-05
1344.2	-1.8049261731884412e-05
1342.3	-1.5005097217484527e-05
1340.4	-1.757817845134253e-05
1338.4	-2.1984752205058235e-05
1336.5	-1.8521802056429994e-05
1334.6	-1.1941450221724088e-05
1332.6	-1.1905180059451295e-05
1330.7	-1.5365196627844648e-05
1328.8	-1.7764655718532238e-05
1326.9	-2.0206573753715707e-05
1324.9	-2.3503557331514058e-05
1323.0	-2.7252590029725652e-05
1321.1	-2.8563802933580237e-05
1319.1	-2.431036011890259e-05
1317.2	-1.8619950294819946e-05
1315.3	-1.494817991325959e-05
1313.4	-1.059736854929097e-05
1311.4	-5.807655572340529e-06
1309.5	-2.9346474343355586e-06
1307.6	-3.5010818186248237e-06
1305.6	-7.3364261000925875e-06
1303.7	-1.0680819648165295e-05
1301.8	-1.1473704985137178e-05
1299.9	-1.3841377125871059e-05
1297.9	-1.644493445738512e-05
1296.0	-1.3332327859266119e-05
1294.1	-1.034547536669753e-05
1292.1	-1.276040153988597e-05
1290.2	-1.615614736123971e-05
1288.3	-1.8590253886262853e-05
1286.4	-1.9610671994542176e-05
1284.4	-1.5293967155596706e-05
1282.5	-9.977803225963648e-06
1280.6	-9.47122947224794e-06
1278.6	-1.2086852492568588e-05
1276.7	-1.9717401686077674e-05
1274.8	-2.787122947224794e-05
1272.9	-2.4287393401881e-05
1270.9	-1.345576238974709e-05
1269.0	-6.233721553530529e-06
1267.1	-2.913459383070999e-06
1265.1	-4.494975878368499e-06
1263.2	-1.0598533209882557e-05
1261.3	-1.6864270747039615e-05
1259.4	-2.4252205058233032e-05
1257.4	-3.272946737488426e-05
1255.5	-3.344153306369086e-05
1253.6	-2.6657156084011502e-05
1251.6	-2.4147565908094146e-05
1249.7	-2.7389483943277618e-05
1247.8	-3.022003313678671e-05
1245.9	-3.3233180644218115e-05
1243.9	-3.84127625359388e-05
1242.0	-4.13696067443107e-05
1240.1	-4.1380975585985085e-05
1238.1	-4.2527688709127225e-05
1236.2	-4.0763032990595e-05
1234.3	-3.7625910043370204e-05
1232.4	-3.987618049802641e-05
1230.4	-3.88941230934165e-05
1228.5	-3.371809853320988e-05
1226.6	-3.659536084986112e-05
1224.6	-4.525522148043467e-05
1222.7	-4.340015593781979e-05
1220.8	-3.136906583499829e-05
1218.9	-2.7993582184104088e-05
1216.9	-3.415220505823303e-05
1215.0	-3.633124604064129e-05
1213.1	-3.231686077676526e-05
1211.1	-2.3591106671214855e-05
1209.2	-1.4025910043370206e-05
1207.3	-9.588246186833001e-06
1205.4	-9.85769699332391e-06
1203.4	-1.3945090395204911e-05
1201.5	-2.0683992008186738e-05
1199.6	-2.6803172360021442e-05
1197.6	-3.326249208128259e-05
1195.7	-4.0173860922956965e-05
1193.8	-4.498878709614541e-05
1191.9	-4.7735500219287564e-05
1189.9	-4.754153306369086e-05
1188.0	-4.346728716924126e-05
1186.1	-3.706001656839335e-05
1184.1	-3.314122118805126e-05
1182.2	-3.730324545587447e-05
1180.3	-4.7289557039130657e-05
1178.4	-5.645576238974708e-05
1176.4	-6.018345109887432e-05
1174.5	-5.111454120169582e-05
1172.6	-3.2079196920228065e-05
1170.6	-2.5927688709127235e-05
1168.7	-3.707014765362312e-05
1166.8	-4.3155762389747087e-05
1164.9	-3.828932800545782e-05
1162.9	-3.412165586472394e-05
1161.0	-3.1926450952682625e-05
1159.1	-2.7948106817406558e-05
1157.1	-2.2718254471029675e-05
1155.2	-1.4476877345158618e-05
1153.3	-2.3863115832561763e-06
1151.4	7.67300813800497e-06
1149.4	5.746016276009941e-06
1147.5	-9.295204912041323e-06
1145.6	-2.455065542614882e-05
1143.6	-2.7146942156814968e-05
1141.7	-1.6535729252960383e-05
1139.8	-7.736582037912382e-06
1137.9	-1.671028702304956e-05
1135.9	-3.758383607036694e-05
1134.0	-5.012931143706447e-05
1132.1	-4.613658203791238e-05
1130.1	-3.7692344427659466e-05
1128.2	-3.6229467374884266e-05
1126.3	-4.0427688709127235e-05
1124.4	-4.56193362896545e-05
1122.4	-5.250549193509088e-05
1120.5	-5.958507382681155e-05
1118.6	-6.302645095268261e-05
1116.6	-6.324385263876029e-05
1114.7	-6.313124604064129e-05
1112.8	-6.49754836508942e-05
1110.9	-6.749272939915209e-05
1108.9	-6.428491788899177e-05
1107.0	-5.289164758052727e-05
1105.1	-3.8662492081282585e-05
1103.1	-3.047154134788753e-05
1101.2	-3.3001393694264416e-05
1099.3	-4.575877881194874e-05
1097.4	-6.222822961843965e-05
1095.4	-6.846481165635203e-05
1093.5	-5.8743311729447875e-05
1091.6	-4.43564592368793e-05
1089.6	-4.2436582037912385e-05
1087.7	-5.419040982408265e-05
1085.8	-6.380301642220165e-05
1083.9	-6.047192631938014e-05
1081.9	-4.834563130451733e-05
1080.0	-3.675166414892062e-05
1078.1	-3.0604951025778474e-05
1076.1	-3.39822133424297e-05
1074.2	-4.6600311875639586e-05
1072.3	-5.83201890746065e-05
1070.4	-6.284826275522634e-05
1068.4	-6.149126260903465e-05
1066.5	-6.057208225719995e-05
1064.6	-6.634988548316358e-05
1062.6	-6.911330344525121e-05
1060.7	-6.3963032990595e-05
1058.8	-5.818345109887432e-05
1056.9	-4.956017250621315e-05
1054.9	-3.466566444130403e-05
1053.0	-2.4050738268115588e-05
1051.1	-2.7770459529262705e-05
1049.1	-4.3969221772818085e-05
1047.2	-6.692606598119e-05
1045.3	-8.798468885531894e-05
1043.4	-8.896195117197017e-05
1041.4	-6.962552507187759e-05
1039.5	-5.283155791628088e-05
1037.6	-4.066868086350568e-05
1035.6	-3.1049500511670975e-05
1033.7	-3.2523049558988356e-05
1031.8	-3.269481994054871e-05
1029.9	-2.736372983772721e-05
1027.9	-2.9340451245066026e-05
1026.0	-3.1250041420983384e-05
1024.1	-2.6873320013644556e-05
1022.1	-2.7708508357292527e-05
1020.2	-3.868507382681156e-05
1018.3	-4.991562302032065e-05
1016.4	-5.275576238974709e-05
1014.4	-4.9233024706398326e-05
1012.5	-4.595877881194873e-05
1010.6	-4.654563130451732e-05
1008.6	-5.154099215437844e-05
1006.7	-6.0676492373666e-05
1004.8	-6.224184493933043e-05
1002.9	-5.185267287169242e-05
1000.9	-4.85587057160957e-05
999.0	-5.6370771404902294e-05
997.1	-6.057092734272209e-05
995.1	-6.487819794357e-05
993.2	-7.028778811948736e-05
991.3	-6.620039471760636e-05
989.4	-5.989258320744603e-05
987.4	-5.963736172701135e-05
985.5	-5.808461575946591e-05
983.6	-5.694517323717167e-05
981.6	-6.447873885288241e-05
979.7	-7.26901076945568e-05
977.8	-6.923751766483114e-05
975.9	-5.902506700453194e-05
973.9	-4.8224526095219524e-05
972.0	-3.903659178402611e-05
970.1	-4.0936050874713705e-05
968.1	-5.052700160810876e-05
966.2	-4.9700009746113735e-05
964.3	-4.204741971638809e-05
962.4	-4.134332147556162e-05
960.4	-4.363481311826908e-05
958.5	-4.545437844159641e-05
956.6	-4.884602602212368e-05
954.6	-4.818755908581453e-05
952.7	-4.372661663661615e-05
950.8	-4.231880512645582e-05
948.9	-4.150975585985088e-05
946.9	-3.4849198382145114e-05
945.0	-3.083767360265094e-05
943.1	-4.014053408703279e-05
941.1	-5.4256698016665854e-05
939.2	-6.206273086106915e-05
937.3	-6.501122264996833e-05
935.4	-6.524710784074849e-05
933.4	-5.9897378295404705e-05
931.5	-4.775190292870717e-05
929.6	-4.4504648896252614e-05
927.6	-5.0186009453730323e-05
925.7	-4.683736172701135e-05
923.8	-4.400077968909897e-05
921.9	-4.935050923444276e-05
919.9	-4.4977501096437795e-05
918.0	-3.209064860386921e-05
916.1	-3.450364017348083e-05
914.1	-5.7107041567175084e-05
912.2	-7.128963988109741e-05
910.3	-6.139087763754203e-05
908.4	-4.893225476341309e-05
906.4	-4.560951708006433e-05
904.5	-4.8977033282978406e-05
902.6	-5.597687734515862e-05
900.6	-4.998716436820818e-05
898.7	-3.1054451537449444e-05
896.8	-1.8134033429170117e-05
894.9	-2.3176877345158617e-05
892.9	-4.837672140733883e-05
891.0	-7.897122947224794e-05
889.1	-9.351600799181327e-05
887.1	-8.735011451683641e-05
885.2	-7.418847522050583e-05
883.3	-6.502791774280005e-05
881.4	-5.8532556892938944e-05
879.4	-6.113913064665465e-05
877.5	-7.60870815262414e-05
875.6	-7.214338482530092e-05
873.6	-3.6879425953900885e-05
871.7	-7.769991715803324e-06
869.8	-8.557623897470883e-07
867.9	-3.852901905365235e-06
865.9	-9.163729837727205e-06
864.0	-1.5253598752497443e-05
862.1	-2.921701671458506e-05
860.1	-5.597177038156035e-05
858.2	-8.070556503094392e-05
856.3	-7.401515520686125e-05
854.4	-4.227710637883144e-05
852.4	-1.8304254178646263e-05
850.5	6.179425953900883e-07
848.6	2.9000696847132207e-05
846.6	5.571082793236198e-05
844.7	5.3736967009404993e-05
842.8	2.13554505141075e-05
840.9	-9.47246722869256e-06
838.9	-1.405599142341991e-05
837.0	1.5351279177427997e-05
835.1	6.187386092295698e-05
833.1	8.38808196481653e-05
831.2	7.0036967009405e-05
829.3	5.7766122508649684e-05
827.4	6.446418790507285e-05
825.4	7.193379464938357e-05
823.5	7.99938112177769e-05
821.6	8.612242580770919e-05
819.6	6.599705667365138e-05
817.7	2.8913064665464646e-05
815.8	2.3126212172896062e-05
813.9	4.074964670337702e-05
811.9	2.6960630573558795e-05
810.0	5.466819355781882e-06
808.1	2.54545977291555e-05
806.1	5.484276107402173e-05
804.2	5.782110520929779e-05
802.3	5.79845231713854e-05
800.4	7.572435066517227e-05
