3997.9	0.0000291
3996.0	0.0000459
3994.1	0.0000195
3992.1	-0.0000100
3990.2	-0.0000033
3988.3	0.0000080
3986.3	0.0000074
3984.4	0.0000102
3982.5	0.0000096
3980.6	0.0000129
3978.6	0.0000219
3976.7	0.0000084
3974.8	-0.0000176
3972.8	-0.0000227
3970.9	-0.0000104
3969.0	-0.0000063
3967.1	-0.0000144
3965.1	-0.0000175
3963.2	-0.0000126
3961.3	-0.0000123
3959.3	-0.0000279
3957.4	-0.0000447
3955.5	-0.0000495
3953.6	-0.0000577
3951.6	-0.0000557
3949.7	-0.0000297
3947.8	-0.0000133
3945.8	-0.0000293
3943.9	-0.0000560
3942.0	-0.0000630
3940.1	-0.0000575
3938.1	-0.0000571
3936.2	-0.0000601
3934.3	-0.0000489
3932.3	-0.0000216
3930.4	-0.0000193
3928.5	-0.0000549
3926.6	-0.0000783
3924.6	-0.0000563
3922.7	-0.0000250
3920.8	-0.0000314
3918.8	-0.0000574
3916.9	-0.0000694
3915.0	-0.0000734
3913.1	-0.0000709
3911.1	-0.0000485
3909.2	-0.0000188
3907.3	0.0000021
3905.3	0.0000264
3903.4	0.0000462
3901.5	0.0000378
3899.6	0.0000054
3897.6	-0.0000353
3895.7	-0.0000545
3893.8	-0.0000243
3891.8	0.0000209
3889.9	0.0000271
3888.0	0.0000078
3886.1	-0.0000067
3884.1	-0.0000107
3882.2	0.0000036
3880.3	0.0000139
3878.3	-0.0000009
3876.4	-0.0000135
3874.5	-0.0000016
3872.6	0.0000369
3870.6	0.0000743
3868.7	0.0000675
3866.8	0.0000314
3864.8	-0.0000003
3862.9	-0.0000197
3861.0	-0.0000250
3859.1	-0.0000174
3857.1	0.0000309
3855.2	0.0001198
3853.3	0.0001476
3851.3	0.0000776
3849.4	0.0000106
3847.5	-0.0000075
3845.6	-0.0000110
3843.6	-0.0000055
3841.7	0.0000322
3839.8	0.0000909
3837.8	0.0001111
3835.9	0.0000627
3834.0	0.0000038
3832.1	-0.0000129
3830.1	-0.0000102
3828.2	-0.0000206
3826.3	-0.0000274
3824.3	0.0000098
3822.4	0.0000707
3820.5	0.0000845
3818.6	0.0000588
3816.6	0.0000248
3814.7	-0.0000337
3812.8	-0.0000865
3810.8	-0.0000819
3808.9	-0.0000353
3807.0	-0.0000028
3805.1	0.0000157
3803.1	0.0000553
3801.2	0.0000698
3799.3	0.0000204
3797.3	-0.0000376
3795.4	-0.0000735
3793.5	-0.0000916
3791.6	-0.0000865
3789.6	-0.0000783
3787.7	-0.0000797
3785.8	-0.0000733
3783.8	-0.0000555
3781.9	-0.0000260
3780.0	-0.0000015
3778.1	-0.0000168
3776.1	-0.0000565
3774.2	-0.0000701
3772.3	-0.0000507
3770.3	-0.0000388
3768.4	-0.0000464
3766.5	-0.0000491
3764.6	-0.0000405
3762.6	-0.0000131
3760.7	0.0000216
3758.8	0.0000193
3756.8	-0.0000109
3754.9	-0.0000055
3753.0	0.0000527
3751.1	0.0001004
3749.1	0.0000894
3747.2	0.0000714
3745.3	0.0000715
3743.3	0.0000302
3741.4	-0.0000256
3739.5	-0.0000103
3737.6	0.0000474
3735.6	0.0000739
3733.7	0.0000619
3731.8	0.0000274
3729.8	-0.0000095
3727.9	-0.0000181
3726.0	-0.0000129
3724.1	-0.0000193
3722.1	-0.0000203
3720.2	-0.0000248
3718.3	-0.0000490
3716.3	-0.0000539
3714.4	-0.0000166
3712.5	0.0000146
3710.6	-0.0000022
3708.6	-0.0000355
3706.7	-0.0000450
3704.8	-0.0000367
3702.8	-0.0000248
3700.9	-0.0000147
3699.0	-0.0000162
3697.1	-0.0000273
3695.1	-0.0000267
3693.2	-0.0000077
3691.3	0.0000170
3689.3	0.0000266
3687.4	0.0000042
3685.5	-0.0000213
3683.6	-0.0000250
3681.6	-0.0000324
3679.7	-0.0000218
3677.8	0.0000437
3675.8	0.0000946
3673.9	0.0000858
3672.0	0.0000678
3670.1	0.0000424
3668.1	-0.0000081
3666.2	-0.0000389
3664.3	-0.0000246
3662.3	-0.0000031
3660.4	0.0000003
3658.5	0.0000061
3656.6	0.0000130
3654.6	0.0000045
3652.7	0.0000135
3650.8	0.0000579
3648.8	0.0000897
3646.9	0.0000781
3645.0	0.0000400
3643.1	-0.0000046
3641.1	-0.0000359
3639.2	-0.0000460
3637.3	-0.0000465
3635.3	-0.0000397
3633.4	-0.0000142
3631.5	0.0000384
3629.6	0.0000875
3627.6	0.0000832
3625.7	0.0000352
3623.8	-0.0000112
3621.8	-0.0000215
3619.9	-0.0000024
3618.0	-0.0000028
3616.1	-0.0000197
3614.1	-0.0000121
3612.2	0.0000097
3610.3	0.0000158
3608.3	0.0000018
3606.4	-0.0000163
3604.5	-0.0000182
3602.6	-0.0000031
3600.6	0.0000121
3598.7	0.0000226
3596.8	0.0000446
3594.8	0.0000686
3592.9	0.0000566
3591.0	0.0000288
3589.1	0.0000399
3587.1	0.0000587
3585.2	0.0000281
3583.3	-0.0000261
3581.3	-0.0000529
3579.4	-0.0000398
3577.5	-0.0000126
3575.6	-0.0000053
3573.6	-0.0000065
3571.7	0.0000135
3569.8	0.0000350
3567.8	0.0000213
3565.9	-0.0000166
3564.0	-0.0000384
3562.1	-0.0000436
3560.1	-0.0000578
3558.2	-0.0000649
3556.3	-0.0000489
3554.3	-0.0000309
3552.4	-0.0000180
3550.5	-0.0000038
3548.6	0.0000121
3546.6	0.0000271
3544.7	0.0000329
3542.8	0.0000182
3540.8	-0.0000087
3538.9	-0.0000199
3537.0	-0.0000194
3535.1	-0.0000267
3533.1	-0.0000281
3531.2	-0.0000205
3529.3	-0.0000240
3527.3	-0.0000262
3525.4	-0.0000058
3523.5	0.0000160
3521.6	0.0000227
3519.6	0.0000282
3517.7	0.0000375
3515.8	0.0000460
3513.8	0.0000528
3511.9	0.0000553
3510.0	0.0000454
3508.1	0.0000270
3506.1	0.0000218
3504.2	0.0000322
3502.3	0.0000381
3500.3	0.0000268
3498.4	0.0000057
3496.5	-0.0000016
3494.6	-0.0000006
3492.6	-0.0000252
3490.7	-0.0000596
3488.8	-0.0000561
3486.8	-0.0000239
3484.9	0.0000021
3483.0	0.0000180
3481.1	0.0000305
3479.1	0.0000440
3477.2	0.0000468
3475.3	0.0000213
3473.3	-0.0000155
3471.4	-0.0000328
3469.5	-0.0000311
3467.6	-0.0000228
3465.6	-0.0000147
3463.7	-0.0000142
3461.8	-0.0000182
3459.8	-0.0000144
3457.9	0.0000054
3456.0	0.0000250
3454.1	0.0000166
3452.1	-0.0000154
3450.2	-0.0000390
3448.3	-0.0000333
3446.3	-0.0000093
3444.4	0.0000038
3442.5	-0.0000046
3440.6	-0.0000162
3438.6	-0.0000182
3436.7	-0.0000095
3434.8	0.0000074
3432.8	0.0000232
3430.9	0.0000270
3429.0	0.0000048
3427.1	-0.0000331
3425.1	-0.0000452
3423.2	-0.0000097
3421.3	0.0000440
3419.3	0.0000522
3417.4	0.0000037
3415.5	-0.0000429
3413.6	-0.0000559
3411.6	-0.0000504
3409.7	-0.0000534
3407.8	-0.0000600
3405.8	-0.0000336
3403.9	0.0000113
3402.0	0.0000168
3400.1	-0.0000145
3398.1	-0.0000337
3396.2	-0.0000287
3394.3	0.0000013
3392.3	0.0000467
3390.4	0.0000566
3388.5	0.0000260
3386.6	0.0000022
3384.6	0.0000015
3382.7	0.0000205
3380.8	0.0000465
3378.8	0.0000557
3376.9	0.0000483
3375.0	0.0000372
3373.1	0.0000200
3371.1	0.0000051
3369.2	0.0000108
3367.3	0.0000230
3365.3	0.0000238
3363.4	0.0000189
3361.5	0.0000168
3359.6	0.0000203
3357.6	0.0000168
3355.7	0.0000015
3353.8	-0.0000011
3351.8	0.0000153
3349.9	0.0000352
3348.0	0.0000437
3346.1	0.0000313
3344.1	0.0000117
3342.2	0.0000046
3340.3	0.0000108
3338.3	0.0000140
3336.4	-0.0000012
3334.5	-0.0000167
3332.6	-0.0000100
3330.6	-0.0000044
3328.7	-0.0000162
3326.8	-0.0000155
3324.8	-0.0000049
3322.9	-0.0000122
3321.0	-0.0000117
3319.1	0.0000045
3317.1	0.0000075
3315.2	0.0000192
3313.3	0.0000463
3311.3	0.0000476
3309.4	0.0000356
3307.5	0.0000420
3305.6	0.0000419
3303.6	0.0000137
3301.7	-0.0000156
3299.8	-0.0000187
3297.8	-0.0000028
3295.9	0.0000168
3294.0	0.0000343
3292.1	0.0000405
3290.1	0.0000239
3288.2	-0.0000055
3286.3	-0.0000193
3284.3	-0.0000110
3282.4	-0.0000097
3280.5	-0.0000234
3278.6	-0.0000257
3276.6	-0.0000163
3274.7	-0.0000051
3272.8	0.0000166
3270.8	0.0000307
3268.9	0.0000165
3267.0	-0.0000055
3265.1	-0.0000144
3263.1	-0.0000165
3261.2	-0.0000182
3259.3	-0.0000101
3257.3	0.0000100
3255.4	0.0000258
3253.5	0.0000253
3251.6	0.0000089
3249.6	-0.0000220
3247.7	-0.0000517
3245.8	-0.0000577
3243.8	-0.0000463
3241.9	-0.0000387
3240.0	-0.0000363
3238.1	-0.0000304
3236.1	-0.0000184
3234.2	0.0000007
3232.3	0.0000151
3230.3	0.0000094
3228.4	-0.0000018
3226.5	0.0000014
3224.6	0.0000146
3222.6	0.0000188
3220.7	0.0000097
3218.8	0.0000026
3216.8	-0.0000035
3214.9	-0.0000168
3213.0	-0.0000261
3211.1	-0.0000154
3209.1	0.0000148
3207.2	0.0000370
3205.3	0.0000312
3203.3	0.0000142
3201.4	-0.0000005
3199.5	-0.0000176
3197.6	-0.0000271
3195.6	-0.0000172
3193.7	-0.0000026
3191.8	-0.0000008
3189.8	-0.0000015
3187.9	0.0000062
3186.0	0.0000083
3184.1	-0.0000045
3182.1	-0.0000136
3180.2	-0.0000070
3178.3	-0.0000078
3176.3	-0.0000219
3174.4	-0.0000220
3172.5	-0.0000126
3170.6	-0.0000094
3168.6	-0.0000024
3166.7	0.0000019
3164.8	-0.0000030
3162.8	0.0000085
3160.9	0.0000321
3159.0	0.0000265
3157.1	0.0000040
3155.1	0.0000015
3153.2	0.0000043
3151.3	0.0000005
3149.3	0.0000078
3147.4	0.0000245
3145.5	0.0000285
3143.6	0.0000084
3141.6	-0.0000263
3139.7	-0.0000550
3137.8	-0.0000574
3135.8	-0.0000388
3133.9	-0.0000281
3132.0	-0.0000318
3130.1	-0.0000290
3128.1	-0.0000143
3126.2	-0.0000019
3124.3	0.0000021
3122.3	0.0000009
3120.4	-0.0000009
3118.5	0.0000021
3116.6	0.0000070
3114.6	0.0000096
3112.7	0.0000110
3110.8	0.0000130
3108.8	0.0000169
3106.9	0.0000201
3105.0	0.0000179
3103.1	0.0000107
3101.1	-0.0000005
3099.2	-0.0000075
3097.3	-0.0000016
3095.3	0.0000007
3093.4	-0.0000095
3091.5	-0.0000154
3089.6	-0.0000075
3087.6	0.0000029
3085.7	0.0000052
3083.8	0.0000067
3081.8	0.0000126
3079.9	0.0000139
3078.0	0.0000076
3076.1	-0.0000086
3074.1	-0.0000262
3072.2	-0.0000217
3070.3	0.0000016
3068.3	0.0000219
3066.4	0.0000323
3064.5	0.0000309
3062.6	0.0000240
3060.6	0.0000287
3058.7	0.0000443
3056.8	0.0000469
3054.8	0.0000313
3052.9	0.0000151
3051.0	0.0000084
3049.1	0.0000099
3047.1	0.0000052
3045.2	-0.0000096
3043.3	-0.0000210
3041.3	-0.0000221
3039.4	-0.0000091
3037.5	0.0000098
3035.6	0.0000171
3033.6	0.0000168
3031.7	0.0000168
3029.8	0.0000145
3027.8	0.0000094
3025.9	0.0000005
3024.0	-0.0000121
3022.1	-0.0000184
3020.1	0.0000002
3018.2	0.0000350
3016.3	0.0000448
3014.3	0.0000204
3012.4	-0.0000050
3010.5	-0.0000122
3008.6	-0.0000032
3006.6	0.0000147
3004.7	0.0000283
3002.8	0.0000263
3000.8	0.0000186
2998.9	0.0000232
2997.0	0.0000317
2995.1	0.0000313
2993.1	0.0000239
2991.2	0.0000162
2989.3	0.0000173
2987.3	0.0000185
2985.4	0.0000057
2983.5	-0.0000026
2981.6	0.0000056
2979.6	0.0000106
2977.7	0.0000014
2975.8	-0.0000131
2973.8	-0.0000212
2971.9	-0.0000187
2970.0	-0.0000135
2968.1	-0.0000146
2966.1	-0.0000138
2964.2	-0.0000051
2962.3	-0.0000005
2960.3	-0.0000047
2958.4	-0.0000135
2956.5	-0.0000199
2954.6	-0.0000099
2952.6	0.0000089
2950.7	0.0000191
2948.8	0.0000229
2946.8	0.0000202
2944.9	0.0000115
2943.0	0.0000104
2941.1	0.0000172
2939.1	0.0000130
2937.2	0.0000031
2935.3	0.0000104
2933.3	0.0000201
2931.4	0.0000120
2929.5	0.0000063
2927.6	0.0000158
2925.6	0.0000222
2923.7	0.0000173
2921.8	0.0000115
2919.8	0.0000087
2917.9	0.0000137
2916.0	0.0000319
2914.1	0.0000414
2912.1	0.0000306
2910.2	0.0000241
2908.3	0.0000266
2906.3	0.0000227
2904.4	0.0000207
2902.5	0.0000271
2900.6	0.0000220
2898.6	0.0000014
2896.7	-0.0000111
2894.8	-0.0000099
2892.8	-0.0000064
2890.9	-0.0000026
2889.0	0.0000002
2887.1	-0.0000004
2885.1	-0.0000010
2883.2	-0.0000025
2881.3	-0.0000076
2879.3	-0.0000139
2877.4	-0.0000115
2875.5	0.0000052
2873.6	0.0000165
2871.6	0.0000076
2869.7	-0.0000057
2867.8	-0.0000101
2865.8	-0.0000104
2863.9	-0.0000042
2862.0	0.0000151
2860.1	0.0000310
2858.1	0.0000258
2856.2	0.0000140
2854.3	0.0000085
2852.3	-0.0000087
2850.4	-0.0000382
2848.5	-0.0000473
2846.6	-0.0000305
2844.6	-0.0000143
2842.7	-0.0000083
2840.8	-0.0000071
2838.8	-0.0000034
2836.9	0.0000092
2835.0	0.0000227
2833.1	0.0000252
2831.1	0.0000182
2829.2	0.0000112
2827.3	0.0000110
2825.3	0.0000182
2823.4	0.0000210
2821.5	0.0000129
2819.6	0.0000107
2817.6	0.0000165
2815.7	0.0000053
2813.8	-0.0000145
2811.8	-0.0000057
2809.9	0.0000224
2808.0	0.0000273
2806.1	0.0000063
2804.1	-0.0000156
2802.2	-0.0000262
2800.3	-0.0000196
2798.3	-0.0000006
2796.4	0.0000102
2794.5	0.0000045
2792.6	-0.0000027
2790.6	-0.0000031
2788.7	0.0000000
2786.8	0.0000044
2784.8	0.0000071
2782.9	0.0000055
2781.0	0.0000052
2779.1	0.0000150
2777.1	0.0000238
2775.2	0.0000102
2773.3	-0.0000124
2771.3	-0.0000155
2769.4	-0.0000054
2767.5	-0.0000005
2765.6	0.0000010
2763.6	-0.0000029
2761.7	-0.0000112
2759.8	-0.0000114
2757.8	-0.0000066
2755.9	-0.0000073
2754.0	-0.0000210
2752.1	-0.0000445
2750.1	-0.0000520
2748.2	-0.0000328
2746.3	-0.0000065
2744.3	0.0000059
2742.4	-0.0000056
2740.5	-0.0000281
2738.6	-0.0000428
2736.6	-0.0000482
2734.7	-0.0000441
2732.8	-0.0000357
2730.8	-0.0000335
2728.9	-0.0000322
2727.0	-0.0000195
2725.1	-0.0000031
2723.1	-0.0000031
2721.2	-0.0000215
2719.3	-0.0000400
2717.3	-0.0000366
2715.4	-0.0000139
2713.5	-0.0000015
2711.6	-0.0000040
2709.6	-0.0000020
2707.7	0.0000045
2705.8	0.0000053
2703.8	0.0000071
2701.9	0.0000222
2700.0	0.0000356
2698.1	0.0000275
2696.1	0.0000173
2694.2	0.0000180
2692.3	0.0000129
2690.3	0.0000069
2688.4	0.0000089
2686.5	0.0000038
2684.6	-0.0000015
2682.6	0.0000053
2680.7	0.0000035
2678.8	-0.0000078
2676.8	0.0000021
2674.9	0.0000313
2673.0	0.0000448
2671.1	0.0000279
2669.1	-0.0000011
2667.2	-0.0000115
2665.3	0.0000006
2663.3	0.0000050
2661.4	-0.0000033
2659.5	-0.0000029
2657.6	0.0000125
2655.6	0.0000371
2653.7	0.0000559
2651.8	0.0000577
2649.8	0.0000478
2647.9	0.0000336
2646.0	0.0000203
2644.1	0.0000085
2642.1	-0.0000014
2640.2	0.0000018
2638.3	0.0000200
2636.3	0.0000242
2634.4	0.0000032
2632.5	-0.0000121
2630.6	-0.0000172
2628.6	-0.0000217
2626.7	-0.0000115
2624.8	0.0000013
2622.8	-0.0000049
2620.9	-0.0000149
2619.0	-0.0000175
2617.1	-0.0000240
2615.1	-0.0000353
2613.2	-0.0000358
2611.3	-0.0000239
2609.3	-0.0000103
2607.4	-0.0000003
2605.5	0.0000032
2603.6	0.0000110
2601.6	0.0000212
2599.7	0.0000157
2597.8	0.0000055
2595.8	0.0000004
2593.9	-0.0000023
2592.0	-0.0000025
2590.1	-0.0000045
2588.1	-0.0000051
2586.2	-0.0000009
2584.3	0.0000052
2582.3	0.0000095
2580.4	0.0000075
2578.5	0.0000059
2576.6	0.0000109
2574.6	0.0000106
2572.7	0.0000007
2570.8	-0.0000017
2568.8	0.0000062
2566.9	0.0000067
2565.0	-0.0000024
2563.1	-0.0000091
2561.1	0.0000017
2559.2	0.0000302
2557.3	0.0000439
2555.3	0.0000241
2553.4	0.0000008
2551.5	-0.0000037
2549.6	-0.0000042
2547.6	-0.0000073
2545.7	-0.0000014
2543.8	0.0000084
2541.8	0.0000110
2539.9	0.0000060
2538.0	0.0000044
2536.1	0.0000168
2534.1	0.0000262
2532.2	0.0000121
2530.3	-0.0000086
2528.3	-0.0000092
2526.4	0.0000052
2524.5	0.0000186
2522.6	0.0000283
2520.6	0.0000275
2518.7	0.0000210
2516.8	0.0000246
2514.8	0.0000280
2512.9	0.0000145
2511.0	0.0000023
2509.1	0.0000103
2507.1	0.0000195
2505.2	0.0000217
2503.3	0.0000285
2501.3	0.0000291
2499.4	0.0000161
2497.5	0.0000044
2495.6	-0.0000046
2493.6	-0.0000158
2491.7	-0.0000198
2489.8	-0.0000192
2487.8	-0.0000248
2485.9	-0.0000276
2484.0	-0.0000207
2482.1	-0.0000104
2480.1	-0.0000061
2478.2	-0.0000107
2476.3	-0.0000073
2474.3	0.0000078
2472.4	0.0000156
2470.5	0.0000118
2468.6	0.0000097
2466.6	0.0000158
2464.7	0.0000210
2462.8	0.0000147
2460.8	0.0000014
2458.9	-0.0000092
2457.0	-0.0000121
2455.1	-0.0000079
2453.1	-0.0000112
2451.2	-0.0000271
2449.3	-0.0000336
2447.3	-0.0000226
2445.4	-0.0000126
2443.5	-0.0000147
2441.6	-0.0000181
2439.6	-0.0000134
2437.7	-0.0000085
2435.8	-0.0000062
2433.8	0.0000021
2431.9	0.0000106
2430.0	0.0000046
2428.1	-0.0000080
2426.1	-0.0000067
2424.2	0.0000008
2422.3	-0.0000066
2420.3	-0.0000197
2418.4	-0.0000156
2416.5	0.0000018
2414.6	0.0000126
2412.6	0.0000085
2410.7	-0.0000060
2408.8	-0.0000186
2406.8	-0.0000186
2404.9	-0.0000111
2403.0	-0.0000101
2401.1	-0.0000162
2399.1	-0.0000146
2397.2	-0.0000029
2395.3	0.0000021
2393.3	-0.0000062
2391.4	-0.0000097
2389.5	0.0000027
2387.6	0.0000086
2385.6	-0.0000049
2383.7	-0.0000096
2381.8	0.0000074
2379.8	0.0000241
2377.9	0.0000260
2376.0	0.0000146
2374.1	-0.0000001
2372.1	-0.0000032
2370.2	0.0000066
2368.3	0.0000209
2366.3	0.0000361
2364.4	0.0000451
2362.5	0.0000473
2360.6	0.0000518
2358.6	0.0000479
2356.7	0.0000206
2354.8	-0.0000110
2352.8	-0.0000182
2350.9	-0.0000123
2349.0	-0.0000113
2347.1	0.0000030
2345.1	0.0000308
2343.2	0.0000419
2341.3	0.0000334
2339.3	0.0000246
2337.4	0.0000262
2335.5	0.0000339
2333.6	0.0000336
2331.6	0.0000191
2329.7	0.0000056
2327.8	0.0000106
2325.8	0.0000238
2323.9	0.0000243
2322.0	0.0000140
2320.1	0.0000074
2318.1	0.0000012
2316.2	-0.0000159
2314.3	-0.0000341
2312.3	-0.0000367
2310.4	-0.0000243
2308.5	-0.0000055
2306.6	0.0000092
2304.6	0.0000087
2302.7	-0.0000019
2300.8	-0.0000043
2298.8	0.0000015
2296.9	0.0000008
2295.0	-0.0000064
2293.1	-0.0000084
2291.1	-0.0000002
2289.2	0.0000113
2287.3	0.0000168
2285.3	0.0000120
2283.4	-0.0000007
2281.5	-0.0000098
2279.6	-0.0000061
2277.6	0.0000030
2275.7	0.0000031
2273.8	-0.0000061
2271.8	-0.0000157
2269.9	-0.0000236
2268.0	-0.0000190
2266.1	0.0000011
2264.1	0.0000119
2262.2	0.0000085
2260.3	0.0000048
2258.3	-0.0000031
2256.4	-0.0000101
2254.5	-0.0000073
2252.6	-0.0000062
2250.6	-0.0000087
2248.7	-0.0000045
2246.8	0.0000058
2244.8	0.0000161
2242.9	0.0000149
2241.0	-0.0000043
2239.1	-0.0000225
2237.1	-0.0000235
2235.2	-0.0000164
2233.3	-0.0000068
2231.3	0.0000038
2229.4	0.0000065
2227.5	-0.0000014
2225.6	-0.0000074
2223.6	0.0000060
2221.7	0.0000298
2219.8	0.0000305
2217.8	0.0000070
2215.9	-0.0000047
2214.0	0.0000048
2212.1	0.0000096
2210.1	0.0000062
2208.2	0.0000081
2206.3	0.0000128
2204.3	0.0000128
2202.4	0.0000098
2200.5	0.0000054
2198.6	0.0000020
2196.6	0.0000057
2194.7	0.0000069
2192.8	-0.0000043
2190.8	-0.0000071
2188.9	0.0000058
2187.0	0.0000160
2185.1	0.0000218
2183.1	0.0000218
2181.2	0.0000078
2179.3	-0.0000055
2177.3	0.0000006
2175.4	0.0000141
2173.5	0.0000111
2171.6	-0.0000087
2169.6	-0.0000228
2167.7	-0.0000164
2165.8	0.0000035
2163.8	0.0000226
2161.9	0.0000333
2160.0	0.0000339
2158.1	0.0000225
2156.1	-0.0000003
2154.2	-0.0000185
2152.3	-0.0000137
2150.3	0.0000046
2148.4	0.0000154
2146.5	0.0000125
2144.6	0.0000021
2142.6	0.0000009
2140.7	0.0000172
2138.8	0.0000324
2136.8	0.0000273
2134.9	0.0000107
2133.0	0.0000045
2131.1	0.0000097
2129.1	0.0000120
2127.2	0.0000075
2125.3	-0.0000027
2123.3	-0.0000093
2121.4	0.0000016
2119.5	0.0000194
2117.6	0.0000258
2115.6	0.0000200
2113.7	0.0000083
2111.8	-0.0000019
2109.8	0.0000007
2107.9	0.0000139
2106.0	0.0000196
2104.1	0.0000116
2102.1	0.0000014
2100.2	0.0000014
2098.3	0.0000105
2096.3	0.0000119
2094.4	0.0000025
2092.5	-0.0000031
2090.6	0.0000009
2088.6	0.0000088
2086.7	0.0000025
2084.8	-0.0000200
2082.8	-0.0000275
2080.9	-0.0000052
2079.0	0.0000191
2077.1	0.0000214
2075.1	0.0000212
2073.2	0.0000367
2071.3	0.0000490
2069.3	0.0000479
2067.4	0.0000457
2065.5	0.0000479
2063.6	0.0000545
2061.6	0.0000594
2059.7	0.0000542
2057.8	0.0000457
2055.8	0.0000410
2053.9	0.0000306
2052.0	0.0000130
2050.1	0.0000057
2048.1	0.0000154
2046.2	0.0000276
2044.3	0.0000275
2042.3	0.0000134
2040.4	-0.0000040
2038.5	-0.0000106
2036.6	-0.0000054
2034.6	0.0000043
2032.7	0.0000109
2030.8	0.0000112
2028.8	0.0000047
2026.9	-0.0000086
2025.0	-0.0000187
2023.1	-0.0000182
2021.1	-0.0000111
2019.2	0.0000006
2017.3	0.0000122
2015.3	0.0000155
2013.4	0.0000099
2011.5	0.0000026
2009.6	-0.0000012
2007.6	-0.0000028
2005.7	-0.0000024
2003.8	0.0000015
2001.8	0.0000014
1999.9	-0.0000102
1998.0	-0.0000185
1996.1	-0.0000044
1994.1	0.0000211
1992.2	0.0000324
1990.3	0.0000226
1988.3	0.0000042
1986.4	-0.0000061
1984.5	-0.0000032
1982.6	0.0000046
1980.6	0.0000080
1978.7	0.0000039
1976.8	-0.0000024
1974.8	-0.0000043
1972.9	-0.0000071
1971.0	-0.0000167
1969.1	-0.0000183
1967.1	-0.0000011
1965.2	0.0000160
1963.3	0.0000162
1961.4	0.0000107
1959.4	0.0000134
1957.5	0.0000157
1955.6	0.0000022
1953.6	-0.0000167
1951.7	-0.0000230
1949.8	-0.0000265
1947.9	-0.0000355
1945.9	-0.0000352
1944.0	-0.0000241
1942.1	-0.0000095
1940.1	0.0000122
1938.2	0.0000266
1936.3	0.0000193
1934.4	0.0000086
1932.4	0.0000047
1930.5	-0.0000001
1928.6	-0.0000081
1926.6	-0.0000126
1924.7	-0.0000061
1922.8	0.0000053
1920.9	0.0000221
1918.9	0.0000455
1917.0	0.0000549
1915.1	0.0000441
1913.1	0.0000307
1911.2	0.0000263
1909.3	0.0000234
1907.4	0.0000110
1905.4	-0.0000009
1903.5	0.0000009
1901.6	0.0000101
1899.6	0.0000149
1897.7	0.0000102
1895.8	0.0000012
1893.9	-0.0000074
1891.9	-0.0000101
1890.0	-0.0000046
1888.1	-0.0000063
1886.1	-0.0000144
1884.2	-0.0000058
1882.3	0.0000128
1880.4	0.0000205
1878.4	0.0000157
1876.5	0.0000046
1874.6	-0.0000016
1872.6	0.0000086
1870.7	0.0000272
1868.8	0.0000260
1866.9	0.0000008
1864.9	-0.0000142
1863.0	-0.0000070
1861.1	0.0000032
1859.1	0.0000097
1857.2	0.0000123
1855.3	-0.0000000
1853.4	-0.0000231
1851.4	-0.0000328
1849.5	-0.0000227
1847.6	0.0000013
1845.6	0.0000296
1843.7	0.0000381
1841.8	0.0000221
1839.9	0.0000020
1837.9	-0.0000091
1836.0	-0.0000042
1834.1	0.0000172
1832.1	0.0000387
1830.2	0.0000388
1828.3	0.0000273
1826.4	0.0000282
1824.4	0.0000269
1822.5	0.0000068
1820.6	-0.0000138
1818.6	-0.0000225
1816.7	-0.0000224
1814.8	-0.0000064
1812.9	0.0000188
1810.9	0.0000217
1809.0	0.0000027
1807.1	-0.0000083
1805.1	-0.0000109
1803.2	-0.0000190
1801.3	-0.0000286
1799.4	-0.0000363
1797.4	-0.0000390
1795.5	-0.0000244
1793.6	0.0000016
1791.6	0.0000106
1789.7	-0.0000021
1787.8	-0.0000084
1785.9	-0.0000039
1783.9	-0.0000108
1782.0	-0.0000282
1780.1	-0.0000500
1778.1	-0.0000719
1776.2	-0.0000657
1774.3	-0.0000199
1772.4	0.0000235
1770.4	0.0000294
1768.5	0.0000184
1766.6	0.0000029
1764.6	-0.0000198
1762.7	-0.0000329
1760.8	-0.0000415
1758.9	-0.0000524
1756.9	-0.0000554
1755.0	-0.0000511
1753.1	-0.0000335
1751.1	-0.0000113
1749.2	-0.0000151
1747.3	-0.0000350
1745.4	-0.0000398
1743.4	-0.0000283
1741.5	-0.0000186
1739.6	-0.0000250
1737.6	-0.0000151
1735.7	0.0000476
1733.8	0.0000909
1731.9	0.0000437
1729.9	-0.0000421
1728.0	-0.0001030
1726.1	-0.0001207
1724.1	-0.0000997
1722.2	-0.0000517
1720.3	0.0000188
1718.4	0.0000779
1716.4	0.0000707
1714.5	0.0000082
1712.6	-0.0000398
1710.6	-0.0000415
1708.7	-0.0000187
1706.8	-0.0000044
1704.9	-0.0000012
1702.9	0.0000305
1701.0	0.0000831
1699.1	0.0000991
1697.1	0.0000826
1695.2	0.0000430
1693.3	-0.0000149
1691.4	-0.0000467
1689.4	-0.0000470
1687.5	-0.0000076
1685.6	0.0000628
1683.6	0.0000703
1681.7	0.0000032
1679.8	-0.0000439
1677.9	-0.0000283
1675.9	0.0000082
1674.0	0.0000190
1672.1	0.0000255
1670.1	0.0000378
1668.2	0.0000152
1666.3	-0.0000206
1664.4	-0.0000194
1662.4	-0.0000091
1660.5	-0.0000236
1658.6	-0.0000249
1656.6	0.0000473
1654.7	0.0001741
1652.8	0.0002140
1650.9	0.0001241
1648.9	0.0000639
1647.0	0.0000837
1645.1	0.0000755
1643.1	0.0000260
1641.2	0.0000008
1639.3	0.0000191
1637.4	0.0000613
1635.4	0.0000640
1633.5	0.0000031
1631.6	-0.0000451
1629.6	-0.0000396
1627.7	-0.0000153
1625.8	0.0000061
1623.9	0.0000234
1621.9	0.0000281
1620.0	0.0000379
1618.1	0.0000721
1616.1	0.0000842
1614.2	0.0000436
1612.3	-0.0000014
1610.4	-0.0000120
1608.4	-0.0000034
1606.5	-0.0000017
1604.6	-0.0000035
1602.6	0.0000041
1600.7	0.0000090
1598.8	0.0000016
1596.9	-0.0000006
1594.9	-0.0000018
1593.0	-0.0000199
1591.1	-0.0000356
1589.1	-0.0000330
1587.2	-0.0000235
1585.3	-0.0000156
1583.4	-0.0000132
1581.4	-0.0000156
1579.5	0.0000055
1577.6	0.0000610
1575.6	0.0000818
1573.7	0.0000401
1571.8	0.0000072
1569.9	-0.0000034
1567.9	-0.0000260
1566.0	-0.0000452
1564.1	-0.0000253
1562.1	0.0000600
1560.2	0.0001695
1558.3	0.0001887
1556.4	0.0001174
1554.4	0.0000532
1552.5	0.0000140
1550.6	-0.0000180
1548.6	-0.0000298
1546.7	-0.0000076
1544.8	0.0000377
1542.9	0.0000909
1540.9	0.0001350
1539.0	0.0001101
1537.1	0.0000169
1535.1	-0.0000536
1533.2	-0.0000799
1531.3	-0.0000922
1529.4	-0.0000813
1527.4	-0.0000468
1525.5	-0.0000147
1523.6	0.0000133
1521.6	0.0000313
1519.7	0.0000152
1517.8	-0.0000193
1515.9	-0.0000413
1513.9	-0.0000407
1512.0	-0.0000208
1510.1	0.0000211
1508.1	0.0000866
1506.2	0.0001053
1504.3	0.0000327
1502.4	-0.0000424
1500.4	-0.0000470
1498.5	-0.0000051
1496.6	0.0000134
1494.6	-0.0000153
1492.7	-0.0000313
1490.8	-0.0000128
1488.9	-0.0000087
1486.9	-0.0000296
1485.0	-0.0000425
1483.1	-0.0000403
1481.1	-0.0000419
1479.2	-0.0000459
1477.3	-0.0000312
1475.4	0.0000095
1473.4	0.0000455
1471.5	0.0000351
1469.6	-0.0000026
1467.6	-0.0000126
1465.7	0.0000028
1463.8	-0.0000034
1461.9	-0.0000215
1459.9	0.0000108
1458.0	0.0000773
1456.1	0.0000908
1454.1	0.0000436
1452.2	-0.0000030
1450.3	-0.0000204
1448.4	-0.0000273
1446.4	-0.0000497
1444.5	-0.0000675
1442.6	-0.0000575
1440.6	-0.0000353
1438.7	-0.0000035
1436.8	0.0000203
1434.9	0.0000031
1432.9	-0.0000200
1431.0	-0.0000195
1429.1	-0.0000205
1427.1	-0.0000283
1425.2	-0.0000332
1423.3	-0.0000270
1421.4	0.0000075
1419.4	0.0000513
1417.5	0.0000555
1415.6	0.0000235
1413.6	-0.0000021
1411.7	-0.0000067
1409.8	0.0000016
1407.9	0.0000125
1405.9	0.0000162
1404.0	0.0000062
1402.1	-0.0000052
1400.1	-0.0000007
1398.2	0.0000064
1396.3	-0.0000050
1394.4	-0.0000298
1392.4	-0.0000461
1390.5	-0.0000432
1388.6	-0.0000416
1386.6	-0.0000543
1384.7	-0.0000618
1382.8	-0.0000505
1380.9	-0.0000352
1378.9	-0.0000351
1377.0	-0.0000453
1375.1	-0.0000422
1373.1	-0.0000286
1371.2	-0.0000320
1369.3	-0.0000505
1367.4	-0.0000564
1365.4	-0.0000432
1363.5	-0.0000241
1361.6	-0.0000169
1359.6	-0.0000271
1357.7	-0.0000460
1355.8	-0.0000636
1353.9	-0.0000677
1351.9	-0.0000536
1350.0	-0.0000260
1348.1	0.0000069
1346.1	0.0000213
1344.2	-0.0000027
1342.3	-0.0000390
1340.4	-0.0000480
1338.4	-0.0000331
1336.5	-0.0000182
1334.6	-0.0000154
1332.6	-0.0000239
1330.7	-0.0000260
1328.8	-0.0000098
1326.9	0.0000098
1324.9	0.0000169
1323.0	0.0000157
1321.1	0.0000183
1319.1	0.0000283
1317.2	0.0000334
1315.3	0.0000229
1313.4	0.0000085
1311.4	-0.0000013
1309.5	-0.0000109
1307.6	-0.0000098
1305.6	0.0000096
1303.7	0.0000248
1301.8	0.0000159
1299.9	-0.0000041
1297.9	-0.0000102
1296.0	-0.0000013
1294.1	0.0000031
1292.1	0.0000060
1290.2	0.0000203
1288.3	0.0000298
1286.4	0.0000225
1284.4	0.0000108
1282.5	-0.0000034
1280.6	-0.0000214
1278.6	-0.0000219
1276.7	0.0000026
1274.8	0.0000206
1272.9	0.0000114
1270.9	-0.0000022
1269.0	0.0000015
1267.1	0.0000130
1265.1	0.0000154
1263.2	-0.0000033
1261.3	-0.0000307
1259.4	-0.0000300
1257.4	0.0000005
1255.5	0.0000212
1253.6	0.0000181
1251.6	0.0000126
1249.7	0.0000175
1247.8	0.0000231
1245.9	0.0000190
1243.9	0.0000083
1242.0	0.0000016
1240.1	0.0000036
1238.1	0.0000085
1236.2	0.0000012
1234.3	-0.0000123
1232.4	-0.0000037
1230.4	0.0000209
1228.5	0.0000337
1226.6	0.0000243
1224.6	0.0000010
1222.7	-0.0000060
1220.8	0.0000191
1218.9	0.0000482
1216.9	0.0000545
1215.0	0.0000461
1213.1	0.0000317
1211.1	0.0000082
1209.2	-0.0000072
1207.3	-0.0000055
1205.4	-0.0000015
1203.4	0.0000009
1201.5	0.0000002
1199.6	-0.0000130
1197.6	-0.0000321
1195.7	-0.0000271
1193.8	0.0000060
1191.9	0.0000253
1189.9	0.0000190
1188.0	0.0000122
1186.1	0.0000059
1184.1	-0.0000047
1182.2	-0.0000141
1180.3	-0.0000181
1178.4	-0.0000133
1176.4	-0.0000117
1174.5	-0.0000178
1172.6	-0.0000184
1170.6	-0.0000111
1168.7	0.0000115
1166.8	0.0000471
1164.9	0.0000605
1162.9	0.0000379
1161.0	0.0000108
1159.1	0.0000046
1157.1	0.0000090
1155.2	0.0000160
1153.3	0.0000321
1151.4	0.0000469
1149.4	0.0000430
1147.5	0.0000199
1145.6	-0.0000010
1143.6	-0.0000035
1141.7	-0.0000051
1139.8	-0.0000145
1137.9	-0.0000153
1135.9	-0.0000056
1134.0	0.0000027
1132.1	-0.0000149
1130.1	-0.0000669
1128.2	-0.0001103
1126.3	-0.0001047
1124.4	-0.0000578
1122.4	-0.0000097
1120.5	0.0000045
1118.6	0.0000009
1116.6	0.0000321
1114.7	0.0000899
1112.8	0.0000838
1110.9	0.0000389
1108.9	0.0001350
1107.0	0.0003188
1105.1	0.0003060
1103.1	0.0001214
1101.2	0.0000175
1099.3	0.0000132
1097.4	0.0000220
1095.4	0.0000395
1093.5	0.0000730
1091.6	0.0001075
1089.6	0.0000971
1087.7	0.0000430
1085.8	0.0000095
1083.9	0.0000138
1081.9	0.0000114
1080.0	-0.0000209
1078.1	-0.0000383
1076.1	-0.0000220
1074.2	-0.0000173
1072.3	-0.0000314
1070.4	-0.0000258
1068.4	0.0000038
1066.5	0.0000155
1064.6	0.0000026
1062.6	0.0000099
1060.7	0.0000340
1058.8	0.0000335
1056.9	0.0000184
1054.9	0.0000128
1053.0	0.0000114
1051.1	-0.0000004
1049.1	-0.0000118
1047.2	0.0000007
1045.3	0.0000179
1043.4	0.0000184
1041.4	0.0000166
1039.5	0.0000076
1037.6	-0.0000110
1035.6	-0.0000153
1033.7	-0.0000120
1031.8	-0.0000213
1029.9	-0.0000284
1027.9	-0.0000286
1026.0	-0.0000364
1024.1	-0.0000422
1022.1	-0.0000365
1020.2	-0.0000210
1018.3	-0.0000028
1016.4	0.0000103
1014.4	0.0000306
1012.5	0.0000534
1010.6	0.0000476
1008.6	0.0000271
1006.7	0.0000155
1004.8	0.0000055
1002.9	-0.0000040
1000.9	-0.0000350
999.0	-0.0000738
997.1	-0.0000542
995.1	0.0000115
993.2	0.0000497
991.3	0.0000223
989.4	-0.0000305
987.4	-0.0000416
985.5	-0.0000074
983.6	0.0000275
981.6	0.0000250
979.7	-0.0000046
977.8	-0.0000222
975.9	-0.0000210
973.9	-0.0000099
972.0	0.0000065
970.1	0.0000130
968.1	0.0000108
966.2	0.0000175
964.3	0.0000205
962.4	0.0000139
960.4	0.0000174
958.5	0.0000151
956.6	-0.0000216
954.6	-0.0000501
952.7	-0.0000219
950.8	0.0000033
948.9	0.0000130
946.9	0.0000651
945.0	0.0000969
943.1	0.0000746
941.1	0.0000658
939.2	0.0000614
937.3	0.0000347
935.4	0.0000278
933.4	0.0000588
931.5	0.0000762
929.6	0.0000386
927.6	-0.0000231
925.7	-0.0000638
923.8	-0.0000785
921.9	-0.0000627
919.9	-0.0000186
918.0	0.0000139
916.1	0.0000037
914.1	-0.0000344
912.2	-0.0000435
910.3	-0.0000085
908.4	0.0000315
906.4	0.0000692
904.5	0.0000933
902.6	0.0000725
900.6	0.0000108
898.7	-0.0000425
896.8	-0.0000429
894.9	-0.0000394
892.9	-0.0000891
891.0	-0.0001337
889.1	-0.0001061
887.1	-0.0000462
885.2	-0.0000068
883.3	0.0000216
881.4	0.0000353
879.4	0.0000214
877.5	0.0000098
875.6	0.0000006
873.6	-0.0000257
871.7	-0.0000199
869.8	0.0000143
867.9	-0.0000009
865.9	-0.0000404
864.0	-0.0000545
862.1	-0.0000466
860.1	-0.0000172
858.2	-0.0000080
856.3	-0.0000449
854.4	-0.0000313
852.4	0.0000925
850.5	0.0001739
848.6	0.0001069
