3997.9	0.0000069
3996.0	-0.0000015
3994.1	-0.0000078
3992.1	0.0000009
3990.2	0.0000096
3988.3	0.0000068
3986.3	0.0000106
3984.4	0.0000243
3982.5	0.0000297
3980.6	0.0000161
3978.6	-0.0000016
3976.7	-0.0000025
3974.8	0.0000081
3972.8	0.0000101
3970.9	-0.0000096
3969.0	-0.0000387
3967.1	-0.0000570
3965.1	-0.0000422
3963.2	0.0000157
3961.3	0.0000747
3959.3	0.0000946
3957.4	0.0000829
3955.5	0.0000619
3953.6	0.0000545
3951.6	0.0000559
3949.7	0.0000630
3947.8	0.0000697
3945.8	0.0000600
3943.9	0.0000534
3942.0	0.0000350
3940.1	0.0000210
3938.1	0.0000450
3936.2	0.0000628
3934.3	0.0000660
3932.3	0.0000521
3930.4	0.0000164
3928.5	-0.0000020
3926.6	0.0000050
3924.6	0.0000167
3922.7	0.0000165
3920.8	0.0000343
3918.8	0.0000575
3916.9	0.0000595
3915.0	0.0000279
3913.1	0.0000329
3911.1	0.0000421
3909.2	0.0000123
3907.3	-0.0000122
3905.3	0.0000161
3903.4	0.0000347
3901.5	0.0000498
3899.6	0.0000987
3897.6	0.0000864
3895.7	0.0000381
3893.8	0.0000278
3891.8	0.0000474
3889.9	-0.0000189
3888.0	-0.0000216
3886.1	0.0000916
3884.1	0.0000517
3882.2	0.0000481
3880.3	0.0001141
3878.3	0.0000578
3876.4	0.0000366
3874.5	0.0000562
3872.6	0.0000425
3870.6	0.0001061
3868.7	0.0000232
3866.8	-0.0000474
3864.8	0.0000214
3862.9	0.0000058
3861.0	-0.0000248
3859.1	-0.0000849
3857.1	-0.0001078
3855.2	0.0001168
3853.3	0.0002264
3851.3	0.0000101
3849.4	-0.0000827
3847.5	-0.0000298
3845.6	0.0000319
3843.6	0.0000612
3841.7	0.0000176
3839.8	0.0000362
3837.8	0.0000913
3835.9	0.0000180
3834.0	0.0000073
3832.1	0.0000401
3830.1	-0.0000044
3828.2	-0.0000122
3826.3	0.0000091
3824.3	0.0000012
3822.4	0.0001072
3820.5	0.0000906
3818.6	-0.0000002
3816.6	0.0001266
3814.7	0.0000801
3812.8	-0.0000198
3810.8	-0.0000051
3808.9	0.0000419
3807.0	0.0000823
3805.1	-0.0000696
3803.1	-0.0000336
3801.2	0.0000958
3799.3	-0.0000200
3797.3	-0.0000272
3795.4	0.0000022
3793.5	-0.0000098
3791.6	0.0000121
3789.6	0.0000376
3787.7	0.0000636
3785.8	0.0000768
3783.8	0.0000503
3781.9	0.0000389
3780.0	0.0000828
3778.1	0.0000750
3776.1	0.0000495
3774.2	0.0000449
3772.3	0.0000621
3770.3	0.0001036
3768.4	0.0000638
3766.5	0.0000463
3764.6	0.0000339
3762.6	-0.0000039
3760.7	0.0000276
3758.8	0.0000504
3756.8	0.0000263
3754.9	-0.0000030
3753.0	0.0000784
3751.1	0.0001101
3749.1	0.0000095
3747.2	-0.0000850
3745.3	0.0001617
3743.3	0.0001295
3741.4	-0.0000784
3739.5	-0.0000448
3737.6	0.0000539
3735.6	0.0000611
3733.7	0.0000161
3731.8	0.0000274
3729.8	-0.0000250
3727.9	0.0000062
3726.0	0.0000440
3724.1	0.0000207
3722.1	0.0000330
3720.2	0.0000416
3718.3	0.0000365
3716.3	0.0000050
3714.4	0.0000209
3712.5	0.0000926
3710.6	0.0000538
3708.6	-0.0000089
3706.7	-0.0000274
3704.8	-0.0000111
3702.8	0.0000321
3700.9	0.0000304
3699.0	0.0000012
3697.1	0.0000198
3695.1	0.0000173
3693.2	0.0000033
3691.3	0.0000166
3689.3	0.0000952
3687.4	0.0000491
3685.5	-0.0000664
3683.6	-0.0000318
3681.6	-0.0000087
3679.7	-0.0000438
3677.8	-0.0000031
3675.8	0.0001212
3673.9	-0.0000036
3672.0	-0.0000010
3670.1	0.0001086
3668.1	0.0000129
3666.2	-0.0000239
3664.3	0.0000232
3662.3	0.0000462
3660.4	0.0000370
3658.5	0.0000616
3656.6	0.0001122
3654.6	0.0000049
3652.7	-0.0000734
3650.8	0.0000196
3648.8	0.0000486
3646.9	-0.0000261
3645.0	-0.0000582
3643.1	-0.0000054
3641.1	0.0000414
3639.2	0.0000403
3637.3	0.0000146
3635.3	-0.0000074
3633.4	-0.0000516
3631.5	-0.0000334
3629.6	0.0001162
3627.6	0.0000665
3625.7	-0.0000381
3623.8	-0.0000120
3621.8	0.0000238
3619.9	0.0000663
3618.0	0.0000414
3616.1	0.0000122
3614.1	0.0000587
3612.2	0.0000817
3610.3	0.0000853
3608.3	0.0000721
3606.4	0.0000045
3604.5	-0.0000213
3602.6	0.0000114
3600.6	0.0000585
3598.7	0.0000686
3596.8	0.0000622
3594.8	0.0000635
3592.9	0.0000390
3591.0	0.0000100
3589.1	0.0000369
3587.1	0.0000452
3585.2	0.0000148
3583.3	0.0000140
3581.3	0.0000268
3579.4	0.0000316
3577.5	0.0000367
3575.6	0.0000460
3573.6	0.0000473
3571.7	0.0000290
3569.8	0.0000381
3567.8	0.0000806
3565.9	0.0000522
3564.0	-0.0000124
3562.1	-0.0000237
3560.1	0.0000048
3558.2	0.0000314
3556.3	0.0000480
3554.3	0.0000661
3552.4	0.0000667
3550.5	0.0000232
3548.6	-0.0000096
3546.6	-0.0000115
3544.7	-0.0000149
3542.8	-0.0000204
3540.8	-0.0000304
3538.9	-0.0000444
3537.0	-0.0000379
3535.1	-0.0000016
3533.1	0.0000481
3531.2	0.0000804
3529.3	0.0000889
3527.3	0.0000827
3525.4	0.0000574
3523.5	0.0000253
3521.6	0.0000048
3519.6	0.0000002
3517.7	-0.0000035
3515.8	-0.0000005
3513.8	0.0000179
3511.9	0.0000356
3510.0	0.0000391
3508.1	0.0000244
3506.1	0.0000291
3504.2	0.0000581
3502.3	0.0000561
3500.3	0.0000383
3498.4	0.0000444
3496.5	0.0000515
3494.6	0.0000342
3492.6	0.0000036
3490.7	-0.0000156
3488.8	-0.0000049
3486.8	0.0000214
3484.9	0.0000397
3483.0	0.0000496
3481.1	0.0000484
3479.1	0.0000409
3477.2	0.0000402
3475.3	0.0000420
3473.3	0.0000372
3471.4	0.0000449
3469.5	0.0000785
3467.6	0.0000913
3465.6	0.0000482
3463.7	0.0000055
3461.8	0.0000051
3459.8	0.0000223
3457.9	0.0000325
3456.0	0.0000273
3454.1	0.0000193
3452.1	0.0000156
3450.2	0.0000135
3448.3	0.0000326
3446.3	0.0000564
3444.4	0.0000496
3442.5	0.0000258
3440.6	0.0000104
3438.6	0.0000124
3436.7	0.0000158
3434.8	0.0000209
3432.8	0.0000395
3430.9	0.0000579
3429.0	0.0000659
3427.1	0.0000711
3425.1	0.0000673
3423.2	0.0000510
3421.3	0.0000364
3419.3	0.0000298
3417.4	0.0000280
3415.5	0.0000215
3413.6	-0.0000007
3411.6	-0.0000273
3409.7	-0.0000295
3407.8	0.0000009
3405.8	0.0000392
3403.9	0.0000536
3402.0	0.0000371
3400.1	0.0000151
3398.1	0.0000065
3396.2	0.0000081
3394.3	0.0000075
3392.3	0.0000096
3390.4	0.0000363
3388.5	0.0000788
3386.6	0.0000924
3384.6	0.0000717
3382.7	0.0000456
3380.8	0.0000313
3378.8	0.0000303
3376.9	0.0000334
3375.0	0.0000324
3373.1	0.0000251
3371.1	0.0000206
3369.2	0.0000457
3367.3	0.0000917
3365.3	0.0001017
3363.4	0.0000714
3361.5	0.0000480
3359.6	0.0000345
3357.6	0.0000207
3355.7	0.0000247
3353.8	0.0000416
3351.8	0.0000414
3349.9	0.0000324
3348.0	0.0000454
3346.1	0.0000663
3344.1	0.0000605
3342.2	0.0000355
3340.3	0.0000164
3338.3	0.0000127
3336.4	0.0000327
3334.5	0.0000625
3332.6	0.0000613
3330.6	0.0000245
3328.7	-0.0000067
3326.8	-0.0000097
3324.8	0.0000023
3322.9	0.0000065
3321.0	-0.0000113
3319.1	-0.0000356
3317.1	-0.0000267
3315.2	0.0000129
3313.3	0.0000386
3311.3	0.0000466
3309.4	0.0000553
3307.5	0.0000436
3305.6	0.0000110
3303.6	0.0000009
3301.7	0.0000192
3299.8	0.0000206
3297.8	-0.0000013
3295.9	-0.0000021
3294.0	0.0000256
3292.1	0.0000421
3290.1	0.0000279
3288.2	0.0000000
3286.3	-0.0000209
3284.3	-0.0000263
3282.4	-0.0000176
3280.5	0.0000009
3278.6	0.0000231
3276.6	0.0000262
3274.7	0.0000055
3272.8	-0.0000067
3270.8	-0.0000085
3268.9	-0.0000169
3267.0	-0.0000178
3265.1	-0.0000067
3263.1	0.0000053
3261.2	0.0000266
3259.3	0.0000555
3257.3	0.0000608
3255.4	0.0000271
3253.5	-0.0000159
3251.6	-0.0000359
3249.6	-0.0000277
3247.7	-0.0000073
3245.8	0.0000079
3243.8	0.0000139
3241.9	0.0000152
3240.0	0.0000072
3238.1	-0.0000160
3236.1	-0.0000372
3234.2	-0.0000300
3232.3	-0.0000037
3230.3	0.0000139
3228.4	0.0000208
3226.5	0.0000241
3224.6	0.0000236
3222.6	0.0000189
3220.7	0.0000164
3218.8	0.0000226
3216.8	0.0000338
3214.9	0.0000383
3213.0	0.0000324
3211.1	0.0000322
3209.1	0.0000339
3207.2	0.0000193
3205.3	-0.0000004
3203.3	-0.0000073
3201.4	0.0000004
3199.5	0.0000153
3197.6	0.0000312
3195.6	0.0000441
3193.7	0.0000481
3191.8	0.0000455
3189.8	0.0000439
3187.9	0.0000356
3186.0	0.0000171
3184.1	0.0000085
3182.1	0.0000189
3180.2	0.0000231
3178.3	0.0000055
3176.3	-0.0000135
3174.4	-0.0000086
3172.5	0.0000160
3170.6	0.0000299
3168.6	0.0000130
3166.7	-0.0000137
3164.8	-0.0000208
3162.8	-0.0000175
3160.9	-0.0000209
3159.0	-0.0000091
3157.1	0.0000273
3155.1	0.0000487
3153.2	0.0000349
3151.3	0.0000125
3149.3	0.0000010
3147.4	-0.0000040
3145.5	-0.0000091
3143.6	-0.0000144
3141.6	-0.0000173
3139.7	-0.0000131
3137.8	0.0000015
3135.8	0.0000135
3133.9	0.0000111
3132.0	0.0000004
3130.1	-0.0000091
3128.1	-0.0000125
3126.2	-0.0000146
3124.3	-0.0000151
3122.3	-0.0000122
3120.4	-0.0000148
3118.5	-0.0000181
3116.6	-0.0000155
3114.6	-0.0000171
3112.7	-0.0000221
3110.8	-0.0000258
3108.8	-0.0000246
3106.9	-0.0000122
3105.0	-0.0000025
3103.1	-0.0000092
3101.1	-0.0000248
3099.2	-0.0000413
3097.3	-0.0000500
3095.3	-0.0000332
3093.4	0.0000071
3091.5	0.0000288
3089.6	0.0000065
3087.6	-0.0000204
3085.7	-0.0000207
3083.8	-0.0000131
3081.8	-0.0000080
3079.9	0.0000010
3078.0	0.0000089
3076.1	0.0000153
3074.1	0.0000215
3072.2	0.0000149
3070.3	-0.0000102
3068.3	-0.0000337
3066.4	-0.0000378
3064.5	-0.0000260
3062.6	-0.0000084
3060.6	0.0000035
3058.7	0.0000028
3056.8	0.0000007
3054.8	0.0000048
3052.9	0.0000124
3051.0	0.0000188
3049.1	0.0000177
3047.1	0.0000141
3045.2	0.0000218
3043.3	0.0000379
3041.3	0.0000466
3039.4	0.0000540
3037.5	0.0000700
3035.6	0.0000798
3033.6	0.0000699
3031.7	0.0000452
3029.8	0.0000221
3027.8	0.0000189
3025.9	0.0000328
3024.0	0.0000470
3022.1	0.0000487
3020.1	0.0000291
3018.2	0.0000009
3016.3	-0.0000084
3014.3	0.0000024
3012.4	0.0000190
3010.5	0.0000421
3008.6	0.0000671
3006.6	0.0000743
3004.7	0.0000561
3002.8	0.0000338
3000.8	0.0000326
2998.9	0.0000514
2997.0	0.0000768
2995.1	0.0000871
2993.1	0.0000872
2991.2	0.0000959
2989.3	0.0000976
2987.3	0.0000806
2985.4	0.0000669
2983.5	0.0000633
2981.6	0.0000573
2979.6	0.0000481
2977.7	0.0000468
2975.8	0.0000506
2973.8	0.0000494
2971.9	0.0000518
2970.0	0.0000582
2968.1	0.0000605
2966.1	0.0000639
2964.2	0.0000630
2962.3	0.0000538
2960.3	0.0000490
2958.4	0.0000425
2956.5	0.0000283
2954.6	0.0000193
2952.6	0.0000163
2950.7	0.0000274
2948.8	0.0000642
2946.8	0.0001010
2944.9	0.0001151
2943.0	0.0001139
2941.1	0.0001020
2939.1	0.0000846
2937.2	0.0000772
2935.3	0.0000875
2933.3	0.0001053
2931.4	0.0001158
2929.5	0.0001275
2927.6	0.0001399
2925.6	0.0001277
2923.7	0.0001056
2921.8	0.0001037
2919.8	0.0001072
2917.9	0.0000962
2916.0	0.0000761
2914.1	0.0000584
2912.1	0.0000482
2910.2	0.0000448
2908.3	0.0000479
2906.3	0.0000574
2904.4	0.0000612
2902.5	0.0000529
2900.6	0.0000482
2898.6	0.0000519
2896.7	0.0000526
2894.8	0.0000476
2892.8	0.0000404
2890.9	0.0000335
2889.0	0.0000321
2887.1	0.0000329
2885.1	0.0000233
2883.2	0.0000145
2881.3	0.0000236
2879.3	0.0000311
2877.4	0.0000168
2875.5	-0.0000046
2873.6	-0.0000111
2871.6	-0.0000006
2869.7	0.0000133
2867.8	0.0000242
2865.8	0.0000336
2863.9	0.0000375
2862.0	0.0000342
2860.1	0.0000267
2858.1	0.0000167
2856.2	0.0000077
2854.3	-0.0000034
2852.3	-0.0000210
2850.4	-0.0000308
2848.5	-0.0000180
2846.6	0.0000060
2844.6	0.0000188
2842.7	0.0000122
2840.8	-0.0000098
2838.8	-0.0000365
2836.9	-0.0000477
2835.0	-0.0000329
2833.1	-0.0000123
2831.1	-0.0000101
2829.2	-0.0000206
2827.3	-0.0000282
2825.3	-0.0000246
2823.4	-0.0000040
2821.5	0.0000140
2819.6	0.0000088
2817.6	0.0000003
2815.7	0.0000063
2813.8	0.0000121
2811.8	0.0000063
2809.9	-0.0000002
2808.0	0.0000035
2806.1	0.0000112
2804.1	0.0000110
2802.2	0.0000067
2800.3	0.0000125
2798.3	0.0000256
2796.4	0.0000362
2794.5	0.0000462
2792.6	0.0000522
2790.6	0.0000447
2788.7	0.0000263
2786.8	0.0000042
2784.8	-0.0000091
2782.9	-0.0000053
2781.0	0.0000026
2779.1	0.0000006
2777.1	-0.0000106
2775.2	-0.0000191
2773.3	-0.0000098
2771.3	0.0000051
2769.4	0.0000037
2767.5	-0.0000038
2765.6	-0.0000060
2763.6	-0.0000136
2761.7	-0.0000175
2759.8	-0.0000039
2757.8	0.0000098
2755.9	0.0000064
2754.0	-0.0000086
2752.1	-0.0000181
2750.1	-0.0000140
2748.2	-0.0000056
2746.3	-0.0000020
2744.3	0.0000045
2742.4	0.0000193
2740.5	0.0000230
2738.6	0.0000117
2736.6	0.0000062
2734.7	0.0000032
2732.8	-0.0000042
2730.8	0.0000055
2728.9	0.0000307
2727.0	0.0000335
2725.1	0.0000117
2723.1	0.0000005
2721.2	0.0000113
2719.3	0.0000297
2717.3	0.0000421
2715.4	0.0000430
2713.5	0.0000364
2711.6	0.0000324
2709.6	0.0000389
2707.7	0.0000496
2705.8	0.0000486
2703.8	0.0000401
2701.9	0.0000454
2700.0	0.0000634
2698.1	0.0000740
2696.1	0.0000735
2694.2	0.0000667
2692.3	0.0000542
2690.3	0.0000447
2688.4	0.0000488
2686.5	0.0000617
2684.6	0.0000653
2682.6	0.0000524
2680.7	0.0000322
2678.8	0.0000123
2676.8	0.0000059
2674.9	0.0000275
2673.0	0.0000598
2671.1	0.0000723
2669.1	0.0000639
2667.2	0.0000511
2665.3	0.0000418
2663.3	0.0000380
2661.4	0.0000420
2659.5	0.0000525
2657.6	0.0000645
2655.6	0.0000642
2653.7	0.0000509
2651.8	0.0000454
2649.8	0.0000539
2647.9	0.0000682
2646.0	0.0000828
2644.1	0.0000907
2642.1	0.0000890
2640.2	0.0000869
2638.3	0.0000930
2636.3	0.0001026
2634.4	0.0001141
2632.5	0.0001232
2630.6	0.0001143
2628.6	0.0000968
2626.7	0.0000929
2624.8	0.0000901
2622.8	0.0000640
2620.9	0.0000294
2619.0	0.0000246
2617.1	0.0000548
2615.1	0.0000785
2613.2	0.0000702
2611.3	0.0000579
2609.3	0.0000600
2607.4	0.0000623
2605.5	0.0000658
2603.6	0.0000746
2601.6	0.0000702
2599.7	0.0000473
2597.8	0.0000287
2595.8	0.0000329
2593.9	0.0000498
2592.0	0.0000547
2590.1	0.0000447
2588.1	0.0000417
2586.2	0.0000567
2584.3	0.0000761
2582.3	0.0000802
2580.4	0.0000695
2578.5	0.0000603
2576.6	0.0000631
2574.6	0.0000745
2572.7	0.0000778
2570.8	0.0000719
2568.8	0.0000717
2566.9	0.0000728
2565.0	0.0000665
2563.1	0.0000579
2561.1	0.0000473
2559.2	0.0000370
2557.3	0.0000362
2555.3	0.0000406
2553.4	0.0000397
2551.5	0.0000388
2549.6	0.0000438
2547.6	0.0000530
2545.7	0.0000628
2543.8	0.0000623
2541.8	0.0000492
2539.9	0.0000419
2538.0	0.0000524
2536.1	0.0000659
2534.1	0.0000620
2532.2	0.0000423
2530.3	0.0000257
2528.3	0.0000209
2526.4	0.0000199
2524.5	0.0000243
2522.6	0.0000389
2520.6	0.0000513
2518.7	0.0000584
2516.8	0.0000600
2514.8	0.0000452
2512.9	0.0000295
2511.0	0.0000345
2509.1	0.0000438
2507.1	0.0000342
2505.2	0.0000146
2503.3	0.0000102
2501.3	0.0000262
2499.4	0.0000441
2497.5	0.0000487
2495.6	0.0000466
2493.6	0.0000454
2491.7	0.0000387
2489.8	0.0000277
2487.8	0.0000212
2485.9	0.0000185
2484.0	0.0000142
2482.1	0.0000096
2480.1	0.0000139
2478.2	0.0000264
2476.3	0.0000324
2474.3	0.0000293
2472.4	0.0000259
2470.5	0.0000194
2468.6	0.0000083
2466.6	0.0000083
2464.7	0.0000193
2462.8	0.0000202
2460.8	0.0000102
2458.9	0.0000073
2457.0	0.0000156
2455.1	0.0000282
2453.1	0.0000382
2451.2	0.0000432
2449.3	0.0000477
2447.3	0.0000541
2445.4	0.0000512
2443.5	0.0000334
2441.6	0.0000176
2439.6	0.0000124
2437.7	0.0000131
2435.8	0.0000234
2433.8	0.0000351
2431.9	0.0000345
2430.0	0.0000212
2428.1	-0.0000007
2426.1	-0.0000141
2424.2	-0.0000039
2422.3	0.0000136
2420.3	0.0000125
2418.4	-0.0000021
2416.5	-0.0000019
2414.6	0.0000162
2412.6	0.0000299
2410.7	0.0000273
2408.8	0.0000152
2406.8	0.0000169
2404.9	0.0000303
2403.0	0.0000308
2401.1	0.0000214
2399.1	0.0000142
2397.2	0.0000089
2395.3	0.0000031
2393.3	-0.0000042
2391.4	-0.0000028
2389.5	0.0000122
2387.6	0.0000240
2385.6	0.0000211
2383.7	0.0000134
2381.8	0.0000082
2379.8	0.0000047
2377.9	0.0000052
2376.0	0.0000065
2374.1	0.0000068
2372.1	0.0000162
2370.2	0.0000279
2368.3	0.0000195
2366.3	0.0000006
2364.4	-0.0000041
2362.5	0.0000007
2360.6	0.0000040
2358.6	0.0000091
2356.7	0.0000097
2354.8	-0.0000046
2352.8	-0.0000175
2350.9	-0.0000088
2349.0	0.0000088
2347.1	0.0000171
2345.1	0.0000169
2343.2	0.0000176
2341.3	0.0000210
2339.3	0.0000182
2337.4	0.0000125
2335.5	0.0000187
2333.6	0.0000327
2331.6	0.0000366
2329.7	0.0000318
2327.8	0.0000316
2325.8	0.0000303
2323.9	0.0000250
2322.0	0.0000242
2320.1	0.0000249
2318.1	0.0000237
2316.2	0.0000264
2314.3	0.0000327
2312.3	0.0000303
2310.4	0.0000172
2308.5	0.0000091
2306.6	0.0000056
2304.6	0.0000011
2302.7	0.0000066
2300.8	0.0000172
2298.8	0.0000165
2296.9	0.0000068
2295.0	-0.0000005
2293.1	0.0000022
2291.1	0.0000111
2289.2	0.0000167
2287.3	0.0000155
2285.3	0.0000116
2283.4	0.0000139
2281.5	0.0000237
2279.6	0.0000260
2277.6	0.0000124
2275.7	-0.0000018
2273.8	0.0000029
2271.8	0.0000178
2269.9	0.0000170
2268.0	-0.0000011
2266.1	-0.0000158
2264.1	-0.0000178
2262.2	-0.0000123
2260.3	-0.0000010
2258.3	0.0000142
2256.4	0.0000241
2254.5	0.0000272
2252.6	0.0000320
2250.6	0.0000366
2248.7	0.0000371
2246.8	0.0000369
2244.8	0.0000292
2242.9	0.0000130
2241.0	0.0000068
2239.1	0.0000183
2237.1	0.0000326
2235.2	0.0000285
2233.3	0.0000061
2231.3	-0.0000100
2229.4	-0.0000116
2227.5	-0.0000104
2225.6	-0.0000066
2223.6	0.0000050
2221.7	0.0000173
2219.8	0.0000205
2217.8	0.0000206
2215.9	0.0000307
2214.0	0.0000420
2212.1	0.0000447
2210.1	0.0000457
2208.2	0.0000383
2206.3	0.0000183
2204.3	0.0000023
2202.4	-0.0000039
2200.5	0.0000032
2198.6	0.0000235
2196.6	0.0000323
2194.7	0.0000200
2192.8	0.0000079
2190.8	0.0000078
2188.9	0.0000147
2187.0	0.0000180
2185.1	0.0000119
2183.1	0.0000116
2181.2	0.0000260
2179.3	0.0000362
2177.3	0.0000250
2175.4	-0.0000006
2173.5	-0.0000124
2171.6	0.0000025
2169.6	0.0000167
2167.7	0.0000085
2165.8	-0.0000021
2163.8	-0.0000000
2161.9	0.0000021
2160.0	0.0000031
2158.1	0.0000043
2156.1	-0.0000031
2154.2	-0.0000132
2152.3	-0.0000182
2150.3	-0.0000230
2148.4	-0.0000209
2146.5	-0.0000013
2144.6	0.0000121
2142.6	0.0000033
2140.7	-0.0000070
2138.8	-0.0000114
2136.8	-0.0000118
2134.9	-0.0000016
2133.0	0.0000127
2131.1	0.0000240
2129.1	0.0000267
2127.2	0.0000129
2125.3	-0.0000089
2123.3	-0.0000243
2121.4	-0.0000245
2119.5	-0.0000037
2117.6	0.0000213
2115.6	0.0000178
2113.7	-0.0000112
2111.8	-0.0000277
2109.8	-0.0000188
2107.9	-0.0000062
2106.0	-0.0000033
2104.1	-0.0000034
2102.1	-0.0000011
2100.2	-0.0000049
2098.3	-0.0000243
2096.3	-0.0000317
2094.4	-0.0000351
2092.5	-0.0000527
2090.6	-0.0001005
2088.6	-0.0001975
2086.7	-0.0003333
2084.8	-0.0004413
2082.8	-0.0004593
2080.9	-0.0003926
2079.0	-0.0002923
2077.1	-0.0002037
2075.1	-0.0001480
2073.2	-0.0001212
2071.3	-0.0001034
2069.3	-0.0000756
2067.4	-0.0000346
2065.5	0.0000094
2063.6	0.0000450
2061.6	0.0000758
2059.7	0.0001018
2057.8	0.0001210
2055.8	0.0001373
2053.9	0.0001447
2052.0	0.0001345
2050.1	0.0001113
2048.1	0.0000908
2046.2	0.0000835
2044.3	0.0000878
2042.3	0.0000956
2040.4	0.0000941
2038.5	0.0000851
2036.6	0.0000811
2034.6	0.0000784
2032.7	0.0000739
2030.8	0.0000738
2028.8	0.0000814
2026.9	0.0000936
2025.0	0.0001044
2023.1	0.0001057
2021.1	0.0000917
2019.2	0.0000747
2017.3	0.0000682
2015.3	0.0000607
2013.4	0.0000486
2011.5	0.0000393
2009.6	0.0000428
2007.6	0.0000547
2005.7	0.0000547
2003.8	0.0000437
2001.8	0.0000337
1999.9	0.0000246
1998.0	0.0000159
1996.1	0.0000069
1994.1	0.0000074
1992.2	0.0000200
1990.3	0.0000159
1988.3	0.0000042
1986.4	-0.0000077
1984.5	-0.0000169
1982.6	-0.0000135
1980.6	-0.0000017
1978.7	0.0000087
1976.8	0.0000120
1974.8	0.0000057
1972.9	-0.0000069
1971.0	-0.0000141
1969.1	-0.0000085
1967.1	-0.0000040
1965.2	-0.0000115
1963.3	-0.0000098
1961.4	-0.0000004
1959.4	0.0000055
1957.5	0.0000155
1955.6	0.0000275
1953.6	0.0000248
1951.7	0.0000075
1949.8	-0.0000113
1947.9	-0.0000205
1945.9	-0.0000205
1944.0	-0.0000060
1942.1	0.0000113
1940.1	0.0000166
1938.2	0.0000235
1936.3	0.0000203
1934.4	0.0000167
1932.4	0.0000218
1930.5	0.0000309
1928.6	0.0000307
1926.6	0.0000103
1924.7	-0.0000070
1922.8	-0.0000231
1920.9	-0.0000511
1918.9	-0.0000283
1917.0	-0.0000124
1915.1	-0.0000216
1913.1	-0.0000055
1911.2	0.0000160
1909.3	0.0000267
1907.4	0.0000128
1905.4	-0.0000077
1903.5	-0.0000164
1901.6	-0.0000166
1899.6	-0.0000155
1897.7	-0.0000094
1895.8	-0.0000001
1893.9	-0.0000136
1891.9	-0.0000280
1890.0	-0.0000182
1888.1	-0.0000305
1886.1	-0.0000353
1884.2	-0.0000150
1882.3	-0.0000014
1880.4	-0.0000037
1878.4	-0.0000225
1876.5	-0.0000361
1874.6	-0.0000335
1872.6	-0.0000325
1870.7	-0.0000108
1868.8	0.0000089
1866.9	-0.0000139
1864.9	-0.0000171
1863.0	0.0000002
1861.1	0.0000148
1859.1	0.0000216
1857.2	0.0000248
1855.3	0.0000342
1853.4	0.0000537
1851.4	0.0000706
1849.5	0.0000696
1847.6	0.0000449
1845.6	0.0000866
1843.7	0.0001279
1841.8	0.0000701
1839.9	0.0000804
1837.9	0.0001159
1836.0	0.0001114
1834.1	0.0000892
1832.1	0.0001034
1830.2	0.0001441
1828.3	0.0001045
1826.4	0.0000921
1824.4	0.0001133
1822.5	0.0001046
1820.6	0.0001041
1818.6	0.0000938
1816.7	0.0000730
1814.8	0.0000548
1812.9	0.0000628
1810.9	0.0000714
1809.0	0.0000577
1807.1	0.0000527
1805.1	0.0000522
1803.2	0.0000629
1801.3	0.0000824
1799.4	0.0000694
1797.4	0.0000449
1795.5	0.0000488
1793.6	0.0001225
1791.6	0.0001467
1789.7	0.0000897
1787.8	0.0000947
1785.9	0.0001350
1783.9	0.0001107
1782.0	0.0000770
1780.1	0.0000859
1778.1	0.0000681
1776.2	0.0000340
1774.3	0.0000750
1772.4	0.0001287
1770.4	0.0000656
1768.5	0.0000932
1766.6	0.0001006
1764.6	0.0000944
1762.7	0.0001768
1760.8	0.0001753
1758.9	0.0001510
1756.9	0.0001993
1755.0	0.0001671
1753.1	0.0001892
1751.1	0.0002537
1749.2	0.0002210
1747.3	0.0002172
1745.4	0.0002405
1743.4	0.0002567
1741.5	0.0003223
1739.6	0.0004060
1737.6	0.0004092
1735.7	0.0006618
1733.8	0.0010193
1731.9	0.0011303
1729.9	0.0013581
1728.0	0.0016407
1726.1	0.0018439
1724.1	0.0019865
1722.2	0.0019885
1720.3	0.0019181
1718.4	0.0019171
1716.4	0.0017284
1714.5	0.0014411
1712.6	0.0012511
1710.6	0.0011075
1708.7	0.0009859
1706.8	0.0009006
1704.9	0.0007405
1702.9	0.0005952
1701.0	0.0006990
1699.1	0.0005543
1697.1	0.0005082
1695.2	0.0005989
1693.3	0.0004336
1691.4	0.0004660
1689.4	0.0005073
1687.5	0.0004966
1685.6	0.0007252
1683.6	0.0007540
1681.7	0.0005347
1679.8	0.0004804
1677.9	0.0004602
1675.9	0.0004984
1674.0	0.0004074
1672.1	0.0003016
1670.1	0.0003442
1668.2	0.0003015
1666.3	0.0002081
1664.4	0.0002477
1662.4	0.0002750
1660.5	0.0002203
1658.6	0.0001669
1656.6	0.0000751
1654.7	0.0002492
1652.8	0.0004366
1650.9	0.0001483
1648.9	0.0001148
1647.0	0.0003270
1645.1	0.0002852
1643.1	0.0001665
1641.2	0.0001497
1639.3	0.0000986
1637.4	0.0001370
1635.4	0.0001789
1633.5	-0.0000100
1631.6	-0.0000898
1629.6	-0.0000218
1627.7	0.0000201
1625.8	0.0000355
1623.9	0.0001029
1621.9	0.0000604
1620.0	-0.0000205
1618.1	0.0001155
1616.1	0.0001754
1614.2	0.0000387
1612.3	0.0000606
1610.4	0.0001162
1608.4	0.0001134
1606.5	0.0000999
1604.6	0.0001076
1602.6	0.0001210
1600.7	0.0001080
1598.8	0.0000736
1596.9	0.0000533
1594.9	0.0000570
1593.0	0.0000582
1591.1	0.0000530
1589.1	0.0000493
1587.2	0.0000470
1585.3	0.0000453
1583.4	0.0000419
1581.4	0.0000066
1579.5	-0.0000599
1577.6	0.0000556
1575.6	0.0001200
1573.7	-0.0000674
1571.8	-0.0000558
1569.9	0.0000679
1567.9	0.0000357
1566.0	-0.0000002
1564.1	-0.0000727
1562.1	-0.0001287
1560.2	0.0000803
1558.3	0.0000973
1556.4	-0.0000976
1554.4	-0.0000422
1552.5	0.0000012
1550.6	0.0000127
1548.6	-0.0000129
1546.7	-0.0000474
1544.8	-0.0000625
1542.9	-0.0000784
1540.9	0.0000335
1539.0	0.0000509
1537.1	-0.0001357
1535.1	-0.0000729
1533.2	0.0000549
1531.3	0.0000053
1529.4	0.0000098
1527.4	0.0000651
1525.5	0.0000539
1523.6	0.0000614
1521.6	0.0001772
1519.7	0.0001217
1517.8	0.0000847
1515.9	0.0000674
1513.9	-0.0000337
1512.0	-0.0001284
1510.1	-0.0002249
1508.1	-0.0001048
1506.2	0.0000131
1504.3	-0.0001764
1502.4	-0.0002375
1500.4	-0.0001375
1498.5	-0.0000381
1496.6	0.0000515
1494.6	0.0000149
1492.7	-0.0000016
1490.8	0.0000769
1488.9	0.0000606
1486.9	0.0000082
1485.0	-0.0000322
1483.1	-0.0000338
1481.1	-0.0000142
1479.2	-0.0000134
1477.3	-0.0000041
1475.4	0.0000127
1473.4	0.0000863
1471.5	0.0000724
1469.6	-0.0000080
1467.6	0.0000321
1465.7	0.0001537
1463.8	0.0001872
1461.9	0.0001377
1459.9	0.0001601
1458.0	0.0003353
1456.1	0.0003375
1454.1	0.0001801
1452.2	0.0002175
1450.3	0.0003092
1448.4	0.0003949
1446.4	0.0004360
1444.5	0.0004733
1442.6	0.0005192
1440.6	0.0005113
1438.7	0.0005623
1436.8	0.0006521
1434.9	0.0005497
1432.9	0.0005047
1431.0	0.0005844
1429.1	0.0006259
1427.1	0.0006518
1425.2	0.0007218
1423.3	0.0007263
1421.4	0.0007389
1419.4	0.0008311
1417.5	0.0008004
1415.6	0.0008058
1413.6	0.0008965
1411.7	0.0009839
1409.8	0.0010336
1407.9	0.0010278
1405.9	0.0009776
1404.0	0.0008543
1402.1	0.0006945
1400.1	0.0005880
1398.2	0.0004607
1396.3	0.0003506
1394.4	0.0002994
1392.4	0.0002053
1390.5	0.0001444
1388.6	0.0001502
1386.6	0.0001097
1384.7	0.0000204
1382.8	-0.0000047
1380.9	0.0000103
1378.9	0.0000387
1377.0	0.0000625
1375.1	0.0001079
1373.1	0.0001474
1371.2	0.0001720
1369.3	0.0002136
1367.4	0.0002271
1365.4	0.0002315
1363.5	0.0002657
1361.6	0.0002717
1359.6	0.0002430
1357.7	0.0002139
1355.8	0.0001844
1353.9	0.0001510
1351.9	0.0001235
1350.0	0.0001099
1348.1	0.0001029
1346.1	0.0000902
1344.2	0.0000610
1342.3	0.0000285
1340.4	0.0000177
1338.4	0.0000098
1336.5	0.0000011
1334.6	0.0000009
1332.6	0.0000077
1330.7	0.0000154
1328.8	0.0000222
1326.9	0.0000440
1324.9	0.0000869
1323.0	0.0001355
1321.1	0.0001981
1319.1	0.0002959
1317.2	0.0004237
1315.3	0.0005729
1313.4	0.0007302
1311.4	0.0008663
1309.5	0.0009490
1307.6	0.0009609
1305.6	0.0009178
1303.7	0.0008337
1301.8	0.0007093
1299.9	0.0005687
1297.9	0.0004410
1296.0	0.0003450
1294.1	0.0002895
1292.1	0.0002630
1290.2	0.0002409
1288.3	0.0002202
1286.4	0.0002129
1284.4	0.0002082
1282.5	0.0001934
1280.6	0.0001797
1278.6	0.0001724
1276.7	0.0001654
1274.8	0.0001672
1272.9	0.0001802
1270.9	0.0001762
1269.0	0.0001452
1267.1	0.0001153
1265.1	0.0000952
1263.2	0.0000711
1261.3	0.0000585
1259.4	0.0000719
1257.4	0.0000884
1255.5	0.0000954
1253.6	0.0000950
1251.6	0.0000837
1249.7	0.0000712
1247.8	0.0000658
1245.9	0.0000595
1243.9	0.0000550
1242.0	0.0000601
1240.1	0.0000634
1238.1	0.0000537
1236.2	0.0000468
1234.3	0.0000526
1232.4	0.0000589
1230.4	0.0000501
1228.5	0.0000307
1226.6	0.0000264
1224.6	0.0000280
1222.7	0.0000070
1220.8	-0.0000106
1218.9	0.0000064
1216.9	0.0000364
1215.0	0.0000519
1213.1	0.0000565
1211.1	0.0000472
1209.2	0.0000178
1207.3	-0.0000066
1205.4	-0.0000055
1203.4	0.0000104
1201.5	0.0000203
1199.6	-0.0000006
1197.6	-0.0000289
1195.7	-0.0000407
1193.8	-0.0000272
1191.9	-0.0000111
1189.9	-0.0000003
1188.0	0.0000078
1186.1	0.0000132
1184.1	0.0000208
1182.2	0.0000186
1180.3	-0.0000034
1178.4	-0.0000080
1176.4	0.0000216
1174.5	0.0000460
1172.6	0.0000584
1170.6	0.0000808
1168.7	0.0000993
1166.8	0.0000899
1164.9	0.0000658
1162.9	0.0000562
1161.0	0.0000591
1159.1	0.0000586
1157.1	0.0000511
1155.2	0.0000376
1153.3	0.0000186
1151.4	0.0000055
1149.4	0.0000123
1147.5	0.0000275
1145.6	0.0000430
1143.6	0.0000697
1141.7	0.0000891
1139.8	0.0000867
1137.9	0.0000867
1135.9	0.0000939
1134.0	0.0001064
1132.1	0.0001302
1130.1	0.0001333
1128.2	0.0001094
1126.3	0.0001031
1124.4	0.0001137
1122.4	0.0001179
1120.5	0.0001227
1118.6	0.0001247
1116.6	0.0001184
1114.7	0.0001271
1112.8	0.0001490
1110.9	0.0001476
1108.9	0.0001212
1107.0	0.0000976
1105.1	0.0000989
1103.1	0.0001173
1101.2	0.0001150
1099.3	0.0000857
1097.4	0.0000650
1095.4	0.0000747
1093.5	0.0000927
1091.6	0.0000846
1089.6	0.0000625
1087.7	0.0000639
1085.8	0.0000900
1083.9	0.0001142
1081.9	0.0001209
1080.0	0.0001080
1078.1	0.0000899
1076.1	0.0000897
1074.2	0.0000950
1072.3	0.0000778
1070.4	0.0000469
1068.4	0.0000362
1066.5	0.0000733
1064.6	0.0001431
1062.6	0.0001868
1060.7	0.0001889
1058.8	0.0002066
1056.9	0.0002788
1054.9	0.0003590
1053.0	0.0003791
1051.1	0.0003448
1049.1	0.0002956
1047.2	0.0002380
1045.3	0.0001796
1043.4	0.0001417
1041.4	0.0001269
1039.5	0.0001129
1037.6	0.0000722
1035.6	0.0000187
1033.7	0.0000047
1031.8	0.0000417
1029.9	0.0000918
1027.9	0.0001295
1026.0	0.0001601
1024.1	0.0001824
1022.1	0.0001874
1020.2	0.0001964
1018.3	0.0002107
1016.4	0.0001924
1014.4	0.0001497
1012.5	0.0001188
1010.6	0.0000939
1008.6	0.0000552
1006.7	0.0000121
1004.8	-0.0000115
1002.9	-0.0000155
1000.9	-0.0000195
999.0	-0.0000225
997.1	-0.0000113
995.1	0.0000147
993.2	0.0000534
991.3	0.0001032
989.4	0.0001544
987.4	0.0001789
985.5	0.0001715
983.6	0.0001867
981.6	0.0002337
979.7	0.0002692
977.8	0.0003109
975.9	0.0003877
973.9	0.0004782
972.0	0.0005637
970.1	0.0006341
968.1	0.0006799
966.2	0.0007028
964.3	0.0006992
962.4	0.0006594
960.4	0.0006014
958.5	0.0005546
956.6	0.0005106
954.6	0.0004539
952.7	0.0003979
950.8	0.0003567
948.9	0.0003382
946.9	0.0003330
945.0	0.0003147
943.1	0.0002821
941.1	0.0002478
939.2	0.0002140
937.3	0.0001838
935.4	0.0001672
933.4	0.0001731
931.5	0.0001849
929.6	0.0001896
927.6	0.0002040
925.7	0.0002157
923.8	0.0001848
921.9	0.0001184
919.9	0.0000600
918.0	0.0000324
916.1	0.0000152
914.1	-0.0000099
912.2	-0.0000079
910.3	0.0000278
908.4	0.0000425
906.4	0.0000347
904.5	0.0000421
902.6	0.0000382
900.6	0.0000230
898.7	0.0000478
896.8	0.0000747
894.9	0.0000517
892.9	0.0000188
891.0	0.0000253
889.1	0.0000677
887.1	0.0001044
885.2	0.0001154
883.3	0.0000800
881.4	0.0000217
879.4	0.0000089
877.5	-0.0000719
875.6	-0.0002593
873.6	-0.0002905
871.7	-0.0001371
869.8	-0.0000473
867.9	-0.0000544
865.9	-0.0000648
864.0	-0.0000692
862.1	-0.0000641
860.1	-0.0000649
858.2	-0.0000804
856.3	-0.0000501
854.4	0.0000164
852.4	0.0000538
850.5	0.0000617
848.6	0.0000387
