3997.9	0.0000145
3996.0	0.0000163
3994.1	0.0000047
3992.1	-0.0000168
3990.2	-0.0000181
3988.3	0.0000014
3986.3	0.0000165
3984.4	0.0000200
3982.5	0.0000113
3980.6	0.0000054
3978.6	0.0000130
3976.7	0.0000112
3974.8	0.0000021
3972.8	0.0000082
3970.9	0.0000116
3969.0	0.0000013
3967.1	0.0000151
3965.1	0.0000564
3963.2	0.0000895
3961.3	0.0001141
3959.3	0.0001191
3957.4	0.0000865
3955.5	0.0000513
3953.6	0.0000390
3951.6	0.0000440
3949.7	0.0000533
3947.8	0.0000666
3945.8	0.0000812
3943.9	0.0000613
3942.0	0.0000283
3940.1	0.0000290
3938.1	0.0000560
3936.2	0.0000788
3934.3	0.0000579
3932.3	0.0000202
3930.4	0.0000221
3928.5	0.0000462
3926.6	0.0000583
3924.6	0.0000587
3922.7	0.0000677
3920.8	0.0000659
3918.8	0.0000395
3916.9	0.0000152
3915.0	0.0000371
3913.1	0.0000569
3911.1	0.0000429
3909.2	0.0000138
3907.3	-0.0000124
3905.3	-0.0000418
3903.4	-0.0000438
3901.5	-0.0000235
3899.6	-0.0000252
3897.6	-0.0000098
3895.7	0.0000239
3893.8	0.0000103
3891.8	-0.0000501
3889.9	-0.0000201
3888.0	0.0000333
3886.1	-0.0000033
3884.1	0.0000061
3882.2	0.0000156
3880.3	-0.0000110
3878.3	0.0000060
3876.4	0.0000051
3874.5	0.0000091
3872.6	0.0000426
3870.6	-0.0000117
3868.7	-0.0000191
3866.8	0.0000067
3864.8	-0.0000234
3862.9	-0.0000243
3861.0	-0.0000171
3859.1	0.0000169
3857.1	0.0000606
3855.2	-0.0000186
3853.3	-0.0000859
3851.3	-0.0000203
3849.4	-0.0000113
3847.5	-0.0000482
3845.6	-0.0000503
3843.6	-0.0000114
3841.7	0.0000491
3839.8	0.0000314
3837.8	-0.0000331
3835.9	-0.0000113
3834.0	-0.0000056
3832.1	-0.0000346
3830.1	-0.0000322
3828.2	-0.0000305
3826.3	-0.0000102
3824.3	0.0000367
3822.4	-0.0000028
3820.5	0.0000078
3818.6	0.0000677
3816.6	-0.0000085
3814.7	-0.0000064
3812.8	0.0000528
3810.8	0.0000528
3808.9	0.0000084
3807.0	-0.0000425
3805.1	0.0000182
3803.1	-0.0000086
3801.2	-0.0000762
3799.3	-0.0000079
3797.3	0.0000042
3795.4	0.0000034
3793.5	0.0000278
3791.6	0.0000245
3789.6	0.0000262
3787.7	0.0000397
3785.8	0.0000435
3783.8	0.0000586
3781.9	0.0000767
3780.0	0.0000535
3778.1	0.0000378
3776.1	0.0000429
3774.2	0.0000629
3772.3	0.0000782
3770.3	0.0000568
3768.4	0.0000475
3766.5	0.0000196
3764.6	0.0000111
3762.6	0.0000394
3760.7	0.0000270
3758.8	0.0000234
3756.8	0.0000725
3754.9	0.0001176
3753.0	0.0000502
3751.1	-0.0000178
3749.1	0.0000295
3747.2	0.0001268
3745.3	0.0000244
3743.3	0.0000178
3741.4	0.0001001
3739.5	0.0000859
3737.6	0.0000525
3735.6	0.0000551
3733.7	0.0000496
3731.8	-0.0000049
3729.8	0.0000125
3727.9	0.0000366
3726.0	0.0000442
3724.1	0.0000459
3722.1	0.0000292
3720.2	0.0000328
3718.3	0.0000548
3716.3	0.0000927
3714.4	0.0000855
3712.5	0.0000130
3710.6	-0.0000050
3708.6	0.0000231
3706.7	0.0000531
3704.8	0.0000640
3702.8	0.0000393
3700.9	0.0000259
3699.0	0.0000476
3697.1	0.0000611
3695.1	0.0000778
3693.2	0.0000984
3691.3	0.0000899
3689.3	0.0000061
3687.4	-0.0000189
3685.5	0.0000475
3683.6	0.0000712
3681.6	0.0000736
3679.7	0.0000825
3677.8	0.0000621
3675.8	0.0000061
3673.9	0.0000879
3672.0	0.0000963
3670.1	0.0000122
3668.1	0.0000246
3666.2	0.0000403
3664.3	0.0000413
3662.3	0.0000576
3660.4	0.0000779
3658.5	0.0000673
3656.6	0.0000291
3654.6	0.0000622
3652.7	0.0000729
3650.8	-0.0000202
3648.8	-0.0000782
3646.9	-0.0000490
3645.0	-0.0000023
3643.1	0.0000257
3641.1	0.0000433
3639.2	0.0000460
3637.3	0.0000470
3635.3	0.0000447
3633.4	0.0000524
3631.5	0.0000509
3629.6	-0.0000197
3627.6	-0.0000187
3625.7	0.0000259
3623.8	0.0000473
3621.8	0.0000625
3619.9	0.0000341
3618.0	0.0000197
3616.1	0.0000301
3614.1	0.0000292
3612.2	0.0000390
3610.3	0.0000353
3608.3	0.0000204
3606.4	0.0000268
3604.5	0.0000168
3602.6	0.0000017
3600.6	0.0000122
3598.7	0.0000423
3596.8	0.0000443
3594.8	0.0000222
3592.9	0.0000259
3591.0	0.0000378
3589.1	0.0000063
3587.1	-0.0000231
3585.2	-0.0000128
3583.3	-0.0000011
3581.3	-0.0000018
3579.4	0.0000062
3577.5	0.0000299
3575.6	0.0000491
3573.6	0.0000608
3571.7	0.0000793
3569.8	0.0000745
3567.8	0.0000267
3565.9	-0.0000041
3564.0	-0.0000123
3562.1	-0.0000208
3560.1	-0.0000146
3558.2	0.0000101
3556.3	0.0000353
3554.3	0.0000483
3552.4	0.0000451
3550.5	0.0000229
3548.6	-0.0000213
3546.6	-0.0000417
3544.7	-0.0000112
3542.8	0.0000206
3540.8	0.0000220
3538.9	0.0000049
3537.0	-0.0000114
3535.1	0.0000004
3533.1	0.0000352
3531.2	0.0000621
3529.3	0.0000718
3527.3	0.0000728
3525.4	0.0000662
3523.5	0.0000508
3521.6	0.0000375
3519.6	0.0000204
3517.7	-0.0000064
3515.8	-0.0000258
3513.8	-0.0000211
3511.9	0.0000068
3510.0	0.0000368
3508.1	0.0000544
3506.1	0.0000592
3504.2	0.0000569
3502.3	0.0000594
3500.3	0.0000591
3498.4	0.0000463
3496.5	0.0000361
3494.6	0.0000290
3492.6	0.0000124
3490.7	0.0000073
3488.8	0.0000283
3486.8	0.0000532
3484.9	0.0000553
3483.0	0.0000397
3481.1	0.0000416
3479.1	0.0000704
3477.2	0.0001000
3475.3	0.0001131
3473.3	0.0001147
3471.4	0.0001133
3469.5	0.0001088
3467.6	0.0000911
3465.6	0.0000597
3463.7	0.0000310
3461.8	0.0000178
3459.8	0.0000244
3457.9	0.0000407
3456.0	0.0000462
3454.1	0.0000390
3452.1	0.0000408
3450.2	0.0000603
3448.3	0.0000818
3446.3	0.0000939
3444.4	0.0000889
3442.5	0.0000666
3440.6	0.0000603
3438.6	0.0000768
3436.7	0.0000819
3434.8	0.0000744
3432.8	0.0000732
3430.9	0.0000614
3429.0	0.0000409
3427.1	0.0000402
3425.1	0.0000552
3423.2	0.0000626
3421.3	0.0000582
3419.3	0.0000510
3417.4	0.0000451
3415.5	0.0000474
3413.6	0.0000495
3411.6	0.0000362
3409.7	0.0000296
3407.8	0.0000515
3405.8	0.0000802
3403.9	0.0000802
3402.0	0.0000502
3400.1	0.0000223
3398.1	0.0000212
3396.2	0.0000359
3394.3	0.0000465
3392.3	0.0000540
3390.4	0.0000816
3388.5	0.0001243
3386.6	0.0001493
3384.6	0.0001412
3382.7	0.0001076
3380.8	0.0000663
3378.8	0.0000447
3376.9	0.0000533
3375.0	0.0000736
3373.1	0.0000832
3371.1	0.0000748
3369.2	0.0000694
3367.3	0.0000834
3365.3	0.0001058
3363.4	0.0001276
3361.5	0.0001338
3359.6	0.0001027
3357.6	0.0000606
3355.7	0.0000560
3353.8	0.0000693
3351.8	0.0000573
3349.9	0.0000417
3348.0	0.0000540
3346.1	0.0000684
3344.1	0.0000622
3342.2	0.0000542
3340.3	0.0000527
3338.3	0.0000524
3336.4	0.0000585
3334.5	0.0000621
3332.6	0.0000425
3330.6	0.0000073
3328.7	-0.0000110
3326.8	-0.0000041
3324.8	0.0000132
3322.9	0.0000301
3321.0	0.0000296
3319.1	0.0000103
3317.1	0.0000010
3315.2	0.0000196
3313.3	0.0000526
3311.3	0.0000705
3309.4	0.0000610
3307.5	0.0000396
3305.6	0.0000229
3303.6	0.0000160
3301.7	0.0000201
3299.8	0.0000328
3297.8	0.0000453
3295.9	0.0000508
3294.0	0.0000591
3292.1	0.0000784
3290.1	0.0000857
3288.2	0.0000603
3286.3	0.0000278
3284.3	0.0000164
3282.4	0.0000239
3280.5	0.0000436
3278.6	0.0000618
3276.6	0.0000512
3274.7	0.0000147
3272.8	-0.0000076
3270.8	-0.0000070
3268.9	-0.0000090
3267.0	-0.0000156
3265.1	-0.0000130
3263.1	0.0000065
3261.2	0.0000390
3259.3	0.0000749
3257.3	0.0000948
3255.4	0.0000730
3253.5	0.0000284
3251.6	0.0000096
3249.6	0.0000290
3247.7	0.0000587
3245.8	0.0000745
3243.8	0.0000828
3241.9	0.0000842
3240.0	0.0000696
3238.1	0.0000461
3236.1	0.0000272
3234.2	0.0000178
3232.3	0.0000158
3230.3	0.0000217
3228.4	0.0000396
3226.5	0.0000608
3224.6	0.0000703
3222.6	0.0000750
3220.7	0.0000818
3218.8	0.0000886
3216.8	0.0001023
3214.9	0.0001117
3213.0	0.0001050
3211.1	0.0000932
3209.1	0.0000707
3207.2	0.0000360
3205.3	0.0000262
3203.3	0.0000443
3201.4	0.0000522
3199.5	0.0000513
3197.6	0.0000674
3195.6	0.0000942
3193.7	0.0001020
3191.8	0.0000818
3189.8	0.0000620
3187.9	0.0000600
3186.0	0.0000592
3184.1	0.0000544
3182.1	0.0000511
3180.2	0.0000389
3178.3	0.0000207
3176.3	0.0000185
3174.4	0.0000355
3172.5	0.0000589
3170.6	0.0000699
3168.6	0.0000536
3166.7	0.0000335
3164.8	0.0000401
3162.8	0.0000555
3160.9	0.0000570
3159.0	0.0000514
3157.1	0.0000418
3155.1	0.0000249
3153.2	0.0000157
3151.3	0.0000263
3149.3	0.0000398
3147.4	0.0000378
3145.5	0.0000228
3143.6	0.0000112
3141.6	0.0000142
3139.7	0.0000212
3137.8	0.0000160
3135.8	0.0000035
3133.9	0.0000016
3132.0	0.0000093
3130.1	0.0000121
3128.1	0.0000034
3126.2	-0.0000148
3124.3	-0.0000242
3122.3	-0.0000151
3120.4	-0.0000045
3118.5	0.0000085
3116.6	0.0000309
3114.6	0.0000446
3112.7	0.0000356
3110.8	0.0000162
3108.8	0.0000121
3106.9	0.0000327
3105.0	0.0000538
3103.1	0.0000495
3101.1	0.0000269
3099.2	0.0000074
3097.3	0.0000020
3095.3	0.0000071
3093.4	0.0000145
3091.5	0.0000207
3089.6	0.0000257
3087.6	0.0000316
3085.7	0.0000324
3083.8	0.0000239
3081.8	0.0000196
3079.9	0.0000298
3078.0	0.0000457
3076.1	0.0000525
3074.1	0.0000457
3072.2	0.0000287
3070.3	0.0000127
3068.3	0.0000046
3066.4	-0.0000022
3064.5	-0.0000041
3062.6	0.0000112
3060.6	0.0000320
3058.7	0.0000404
3056.8	0.0000364
3054.8	0.0000266
3052.9	0.0000196
3051.0	0.0000273
3049.1	0.0000405
3047.1	0.0000401
3045.2	0.0000293
3043.3	0.0000210
3041.3	0.0000181
3039.4	0.0000160
3037.5	0.0000132
3035.6	0.0000122
3033.6	0.0000134
3031.7	0.0000110
3029.8	0.0000063
3027.8	0.0000075
3025.9	0.0000159
3024.0	0.0000298
3022.1	0.0000500
3020.1	0.0000773
3018.2	0.0000970
3016.3	0.0000839
3014.3	0.0000475
3012.4	0.0000238
3010.5	0.0000221
3008.6	0.0000182
3006.6	-0.0000040
3004.7	-0.0000298
3002.8	-0.0000355
3000.8	-0.0000171
2998.9	0.0000076
2997.0	0.0000117
2995.1	0.0000027
2993.1	0.0000061
2991.2	0.0000354
2989.3	0.0000599
2987.3	0.0000623
2985.4	0.0000602
2983.5	0.0000561
2981.6	0.0000494
2979.6	0.0000511
2977.7	0.0000598
2975.8	0.0000659
2973.8	0.0000685
2971.9	0.0000833
2970.0	0.0001167
2968.1	0.0001525
2966.1	0.0001860
2964.2	0.0002097
2962.3	0.0002039
2960.3	0.0001834
2958.4	0.0001774
2956.5	0.0001799
2954.6	0.0001772
2952.6	0.0001757
2950.7	0.0001833
2948.8	0.0001880
2946.8	0.0001687
2944.9	0.0001398
2943.0	0.0001339
2941.1	0.0001446
2939.1	0.0001542
2937.2	0.0001560
2935.3	0.0001483
2933.3	0.0001522
2931.4	0.0001775
2929.5	0.0002069
2927.6	0.0002270
2925.6	0.0002303
2923.7	0.0002180
2921.8	0.0002027
2919.8	0.0001904
2917.9	0.0001839
2916.0	0.0001855
2914.1	0.0001765
2912.1	0.0001506
2910.2	0.0001365
2908.3	0.0001478
2906.3	0.0001609
2904.4	0.0001543
2902.5	0.0001336
2900.6	0.0001125
2898.6	0.0000964
2896.7	0.0000885
2894.8	0.0000893
2892.8	0.0000921
2890.9	0.0000861
2889.0	0.0000774
2887.1	0.0000761
2885.1	0.0000641
2883.2	0.0000466
2881.3	0.0000578
2879.3	0.0000838
2877.4	0.0000878
2875.5	0.0000782
2873.6	0.0000781
2871.6	0.0000861
2869.7	0.0000965
2867.8	0.0001120
2865.8	0.0001266
2863.9	0.0001287
2862.0	0.0001249
2860.1	0.0001290
2858.1	0.0001413
2856.2	0.0001475
2854.3	0.0001294
2852.3	0.0000902
2850.4	0.0000627
2848.5	0.0000623
2846.6	0.0000684
2844.6	0.0000656
2842.7	0.0000565
2840.8	0.0000436
2838.8	0.0000267
2836.9	0.0000179
2835.0	0.0000261
2833.1	0.0000303
2831.1	0.0000187
2829.2	0.0000123
2827.3	0.0000127
2825.3	0.0000024
2823.4	-0.0000065
2821.5	0.0000005
2819.6	0.0000144
2817.6	0.0000269
2815.7	0.0000309
2813.8	0.0000196
2811.8	0.0000036
2809.9	-0.0000023
2808.0	0.0000022
2806.1	0.0000064
2804.1	0.0000054
2802.2	0.0000049
2800.3	0.0000048
2798.3	0.0000041
2796.4	0.0000164
2794.5	0.0000390
2792.6	0.0000437
2790.6	0.0000275
2788.7	0.0000126
2786.8	0.0000055
2784.8	0.0000035
2782.9	0.0000104
2781.0	0.0000225
2779.1	0.0000217
2777.1	0.0000041
2775.2	-0.0000093
2773.3	-0.0000085
2771.3	-0.0000017
2769.4	0.0000087
2767.5	0.0000248
2765.6	0.0000329
2763.6	0.0000197
2761.7	0.0000079
2759.8	0.0000226
2757.8	0.0000490
2755.9	0.0000576
2754.0	0.0000488
2752.1	0.0000438
2750.1	0.0000419
2748.2	0.0000339
2746.3	0.0000287
2744.3	0.0000350
2742.4	0.0000516
2740.5	0.0000642
2738.6	0.0000606
2736.6	0.0000527
2734.7	0.0000599
2732.8	0.0000814
2730.8	0.0000997
2728.9	0.0001018
2727.0	0.0000851
2725.1	0.0000655
2723.1	0.0000620
2721.2	0.0000634
2719.3	0.0000581
2717.3	0.0000523
2715.4	0.0000475
2713.5	0.0000461
2711.6	0.0000554
2709.6	0.0000754
2707.7	0.0000813
2705.8	0.0000594
2703.8	0.0000491
2701.9	0.0000727
2700.0	0.0000964
2698.1	0.0000982
2696.1	0.0000884
2694.2	0.0000798
2692.3	0.0000782
2690.3	0.0000804
2688.4	0.0000775
2686.5	0.0000700
2684.6	0.0000620
2682.6	0.0000488
2680.7	0.0000345
2678.8	0.0000328
2676.8	0.0000460
2674.9	0.0000671
2673.0	0.0000837
2671.1	0.0000879
2669.1	0.0000872
2667.2	0.0000879
2665.3	0.0000864
2663.3	0.0000821
2661.4	0.0000797
2659.5	0.0000804
2657.6	0.0000767
2655.6	0.0000641
2653.7	0.0000535
2651.8	0.0000573
2649.8	0.0000675
2647.9	0.0000670
2646.0	0.0000564
2644.1	0.0000486
2642.1	0.0000499
2640.2	0.0000536
2638.3	0.0000534
2636.3	0.0000588
2634.4	0.0000784
2632.5	0.0000981
2630.6	0.0000996
2628.6	0.0000877
2626.7	0.0000775
2624.8	0.0000664
2622.8	0.0000455
2620.9	0.0000285
2619.0	0.0000404
2617.1	0.0000748
2615.1	0.0000942
2613.2	0.0000799
2611.3	0.0000603
2609.3	0.0000630
2607.4	0.0000769
2605.5	0.0000851
2603.6	0.0000877
2601.6	0.0000856
2599.7	0.0000813
2597.8	0.0000756
2595.8	0.0000678
2593.9	0.0000629
2592.0	0.0000601
2590.1	0.0000514
2588.1	0.0000379
2586.2	0.0000289
2584.3	0.0000282
2582.3	0.0000287
2580.4	0.0000241
2578.5	0.0000238
2576.6	0.0000360
2574.6	0.0000480
2572.7	0.0000500
2570.8	0.0000503
2568.8	0.0000569
2566.9	0.0000606
2565.0	0.0000543
2563.1	0.0000505
2561.1	0.0000485
2559.2	0.0000338
2557.3	0.0000203
2555.3	0.0000188
2553.4	0.0000183
2551.5	0.0000219
2549.6	0.0000356
2547.6	0.0000488
2545.7	0.0000489
2543.8	0.0000339
2541.8	0.0000170
2539.9	0.0000144
2538.0	0.0000213
2536.1	0.0000256
2534.1	0.0000257
2532.2	0.0000228
2530.3	0.0000223
2528.3	0.0000269
2526.4	0.0000280
2524.5	0.0000301
2522.6	0.0000452
2520.6	0.0000664
2518.7	0.0000773
2516.8	0.0000694
2514.8	0.0000465
2512.9	0.0000267
2511.0	0.0000270
2509.1	0.0000387
2507.1	0.0000359
2505.2	0.0000196
2503.3	0.0000127
2501.3	0.0000163
2499.4	0.0000210
2497.5	0.0000285
2495.6	0.0000370
2493.6	0.0000407
2491.7	0.0000389
2489.8	0.0000346
2487.8	0.0000255
2485.9	0.0000066
2484.0	-0.0000111
2482.1	-0.0000121
2480.1	0.0000044
2478.2	0.0000305
2476.3	0.0000461
2474.3	0.0000337
2472.4	0.0000074
2470.5	-0.0000014
2468.6	0.0000111
2466.6	0.0000209
2464.7	0.0000215
2462.8	0.0000207
2460.8	0.0000185
2458.9	0.0000191
2457.0	0.0000258
2455.1	0.0000360
2453.1	0.0000429
2451.2	0.0000333
2449.3	0.0000172
2447.3	0.0000163
2445.4	0.0000243
2443.5	0.0000238
2441.6	0.0000164
2439.6	0.0000102
2437.7	0.0000052
2435.8	0.0000041
2433.8	0.0000074
2431.9	0.0000090
2430.0	0.0000046
2428.1	-0.0000042
2426.1	-0.0000046
2424.2	0.0000065
2422.3	0.0000132
2420.3	0.0000044
2418.4	-0.0000120
2416.5	-0.0000184
2414.6	-0.0000113
2412.6	0.0000035
2410.7	0.0000210
2408.8	0.0000284
2406.8	0.0000272
2404.9	0.0000289
2403.0	0.0000359
2401.1	0.0000370
2399.1	0.0000189
2397.2	-0.0000028
2395.3	-0.0000114
2393.3	-0.0000186
2391.4	-0.0000210
2389.5	-0.0000065
2387.6	0.0000150
2385.6	0.0000309
2383.7	0.0000401
2381.8	0.0000431
2379.8	0.0000309
2377.9	0.0000067
2376.0	0.0000008
2374.1	0.0000219
2372.1	0.0000462
2370.2	0.0000529
2368.3	0.0000389
2366.3	0.0000257
2364.4	0.0000341
2362.5	0.0000542
2360.6	0.0000708
2358.6	0.0000818
2356.7	0.0000805
2354.8	0.0000602
2352.8	0.0000323
2350.9	0.0000183
2349.0	0.0000282
2347.1	0.0000467
2345.1	0.0000588
2343.2	0.0000667
2341.3	0.0000605
2339.3	0.0000358
2337.4	0.0000172
2335.5	0.0000149
2333.6	0.0000155
2331.6	0.0000105
2329.7	0.0000053
2327.8	0.0000110
2325.8	0.0000168
2323.9	0.0000040
2322.0	-0.0000089
2320.1	0.0000067
2318.1	0.0000372
2316.2	0.0000468
2314.3	0.0000339
2312.3	0.0000257
2310.4	0.0000235
2308.5	0.0000121
2306.6	0.0000004
2304.6	0.0000037
2302.7	0.0000210
2300.8	0.0000343
2298.8	0.0000270
2296.9	0.0000123
2295.0	0.0000060
2293.1	0.0000032
2291.1	0.0000048
2289.2	0.0000128
2287.3	0.0000186
2285.3	0.0000207
2283.4	0.0000205
2281.5	0.0000187
2279.6	0.0000167
2277.6	0.0000104
2275.7	-0.0000004
2273.8	-0.0000085
2271.8	-0.0000146
2269.9	-0.0000225
2268.0	-0.0000268
2266.1	-0.0000232
2264.1	-0.0000267
2262.2	-0.0000448
2260.3	-0.0000502
2258.3	-0.0000288
2256.4	-0.0000033
2254.5	0.0000090
2252.6	0.0000069
2250.6	-0.0000033
2248.7	-0.0000050
2246.8	0.0000103
2244.8	0.0000284
2242.9	0.0000372
2241.0	0.0000395
2239.1	0.0000416
2237.1	0.0000433
2235.2	0.0000310
2233.3	0.0000046
2231.3	-0.0000118
2229.4	-0.0000131
2227.5	-0.0000128
2225.6	-0.0000137
2223.6	-0.0000062
2221.7	0.0000167
2219.8	0.0000383
2217.8	0.0000379
2215.9	0.0000218
2214.0	0.0000081
2212.1	0.0000085
2210.1	0.0000188
2208.2	0.0000208
2206.3	0.0000155
2204.3	0.0000138
2202.4	0.0000128
2200.5	0.0000177
2198.6	0.0000353
2196.6	0.0000474
2194.7	0.0000422
2192.8	0.0000340
2190.8	0.0000277
2188.9	0.0000216
2187.0	0.0000245
2185.1	0.0000303
2183.1	0.0000237
2181.2	0.0000104
2179.3	0.0000049
2177.3	-0.0000021
2175.4	-0.0000187
2173.5	-0.0000214
2171.6	-0.0000060
2169.6	0.0000073
2167.7	0.0000165
2165.8	0.0000241
2163.8	0.0000272
2161.9	0.0000296
2160.0	0.0000383
2158.1	0.0000470
2156.1	0.0000465
2154.2	0.0000443
2152.3	0.0000389
2150.3	0.0000212
2148.4	0.0000050
2146.5	0.0000058
2144.6	0.0000109
2142.6	0.0000055
2140.7	-0.0000050
2138.8	-0.0000162
2136.8	-0.0000260
2134.9	-0.0000202
2133.0	0.0000051
2131.1	0.0000285
2129.1	0.0000255
2127.2	0.0000025
2125.3	-0.0000056
2123.3	0.0000055
2121.4	0.0000141
2119.5	0.0000282
2117.6	0.0000459
2115.6	0.0000390
2113.7	0.0000079
2111.8	-0.0000185
2109.8	-0.0000220
2107.9	-0.0000080
2106.0	0.0000076
2104.1	0.0000164
2102.1	0.0000236
2100.2	0.0000325
2098.3	0.0000444
2096.3	0.0000302
2094.4	0.0000131
2092.5	0.0000089
2090.6	0.0000142
2088.6	0.0000154
2086.7	-0.0000006
2084.8	-0.0000356
2082.8	-0.0000677
2080.9	-0.0000647
2079.0	-0.0000055
2077.1	0.0000957
2075.1	0.0001777
2073.2	0.0001874
2071.3	0.0001369
2069.3	0.0000788
2067.4	0.0000439
2065.5	0.0000263
2063.6	0.0000194
2061.6	0.0000180
2059.7	0.0000128
2057.8	0.0000055
2055.8	0.0000042
2053.9	0.0000041
2052.0	-0.0000057
2050.1	-0.0000229
2048.1	-0.0000395
2046.2	-0.0000495
2044.3	-0.0000464
2042.3	-0.0000309
2040.4	-0.0000135
2038.5	-0.0000083
2036.6	-0.0000173
2034.6	-0.0000281
2032.7	-0.0000309
2030.8	-0.0000217
2028.8	-0.0000067
2026.9	0.0000011
2025.0	0.0000008
2023.1	-0.0000006
2021.1	-0.0000092
2019.2	-0.0000297
2017.3	-0.0000439
2015.3	-0.0000366
2013.4	-0.0000299
2011.5	-0.0000425
2009.6	-0.0000556
2007.6	-0.0000496
2005.7	-0.0000419
2003.8	-0.0000471
2001.8	-0.0000533
1999.9	-0.0000555
1998.0	-0.0000566
1996.1	-0.0000523
1994.1	-0.0000445
1992.2	-0.0000445
1990.3	-0.0000478
1988.3	-0.0000529
1986.4	-0.0000591
1984.5	-0.0000645
1982.6	-0.0000621
1980.6	-0.0000489
1978.7	-0.0000359
1976.8	-0.0000338
1974.8	-0.0000423
1972.9	-0.0000540
1971.0	-0.0000614
1969.1	-0.0000629
1967.1	-0.0000565
1965.2	-0.0000410
1963.3	-0.0000199
1961.4	0.0000122
1959.4	0.0000389
1957.5	0.0000329
1955.6	0.0000089
1953.6	-0.0000055
1951.7	-0.0000108
1949.8	-0.0000140
1947.9	-0.0000123
1945.9	-0.0000006
1944.0	0.0000068
1942.1	0.0000128
1940.1	0.0000297
1938.2	0.0000303
1936.3	0.0000198
1934.4	0.0000221
1932.4	0.0000344
1930.5	0.0000450
1928.6	0.0000491
1926.6	0.0000409
1924.7	0.0000171
1922.8	-0.0000023
1920.9	-0.0000029
1918.9	-0.0000137
1917.0	-0.0000086
1915.1	0.0000115
1913.1	0.0000230
1911.2	0.0000396
1909.3	0.0000599
1907.4	0.0000860
1905.4	0.0001233
1903.5	0.0001624
1901.6	0.0001728
1899.6	0.0001505
1897.7	0.0001231
1895.8	0.0001005
1893.9	0.0000860
1891.9	0.0000738
1890.0	0.0000559
1888.1	0.0000514
1886.1	0.0000461
1884.2	0.0000350
1882.3	0.0000338
1880.4	0.0000339
1878.4	0.0000278
1876.5	0.0000211
1874.6	0.0000245
1872.6	0.0000394
1870.7	0.0000329
1868.8	0.0000142
1866.9	0.0000206
1864.9	0.0000251
1863.0	0.0000234
1861.1	0.0000197
1859.1	0.0000136
1857.2	0.0000139
1855.3	0.0000167
1853.4	0.0000138
1851.4	0.0000132
1849.5	0.0000231
1847.6	0.0000430
1845.6	0.0000231
1843.7	0.0000014
1841.8	0.0000387
1839.9	0.0000463
1837.9	0.0000338
1836.0	0.0000292
1834.1	0.0000315
1832.1	0.0000257
1830.2	0.0000118
1828.3	0.0000229
1826.4	0.0000032
1824.4	-0.0000139
1822.5	0.0000095
1820.6	0.0000167
1818.6	0.0000099
1816.7	0.0000099
1814.8	0.0000176
1812.9	0.0000152
1810.9	0.0000041
1809.0	-0.0000021
1807.1	-0.0000015
1805.1	0.0000103
1803.2	0.0000126
1801.3	-0.0000038
1799.4	-0.0000119
1797.4	-0.0000051
1795.5	0.0000068
1793.6	-0.0000159
1791.6	-0.0000218
1789.7	0.0000225
1787.8	0.0000390
1785.9	0.0000151
1783.9	0.0000047
1782.0	0.0000055
1780.1	0.0000009
1778.1	0.0000135
1776.2	0.0000192
1774.3	-0.0000279
1772.4	-0.0000691
1770.4	-0.0000160
1768.5	0.0000077
1766.6	0.0000310
1764.6	0.0000493
1762.7	0.0000169
1760.8	0.0000157
1758.9	0.0000153
1756.9	-0.0000153
1755.0	0.0000095
1753.1	0.0000033
1751.1	-0.0000285
1749.2	0.0000047
1747.3	0.0000353
1745.4	0.0000464
1743.4	0.0000564
1741.5	0.0000586
1739.6	0.0000825
1737.6	0.0001708
1735.7	0.0001430
1733.8	0.0000735
1731.9	0.0001539
1729.9	0.0001799
1728.0	0.0001511
1726.1	0.0001337
1724.1	0.0001198
1722.2	0.0001265
1720.3	0.0001038
1718.4	0.0000003
1716.4	-0.0000088
1714.5	0.0000405
1712.6	0.0000377
1710.6	0.0000230
1708.7	0.0000265
1706.8	0.0000299
1704.9	0.0000676
1702.9	0.0000877
1701.0	-0.0000155
1699.1	0.0000322
1697.1	0.0000451
1695.2	-0.0000147
1693.3	0.0000708
1691.4	0.0000706
1689.4	0.0000642
1687.5	0.0000893
1685.6	-0.0000046
1683.6	-0.0000133
1681.7	0.0000898
1679.8	0.0001053
1677.9	0.0000980
1675.9	0.0000552
1674.0	0.0000798
1672.1	0.0001101
1670.1	0.0000622
1668.2	0.0000698
1666.3	0.0001123
1664.4	0.0000708
1662.4	0.0000337
1660.5	0.0000775
1658.6	0.0001379
1656.6	0.0001902
1654.7	0.0000794
1652.8	-0.0000330
1650.9	0.0001348
1648.9	0.0001835
1647.0	0.0000658
1645.1	0.0000459
1643.1	0.0000727
1641.2	0.0000572
1639.3	0.0000644
1637.4	0.0000247
1635.4	-0.0000334
1633.5	0.0000277
1631.6	0.0000688
1629.6	0.0000692
1627.7	0.0000900
1625.8	0.0001149
1623.9	0.0001050
1621.9	0.0001484
1620.0	0.0002033
1618.1	0.0001278
1616.1	0.0000829
1614.2	0.0001714
1612.3	0.0002096
1610.4	0.0002150
1608.4	0.0002176
1606.5	0.0002142
1604.6	0.0002095
1602.6	0.0002220
1600.7	0.0002466
1598.8	0.0002491
1596.9	0.0002297
1594.9	0.0002198
1593.0	0.0002275
1591.1	0.0002363
1589.1	0.0002430
1587.2	0.0002432
1585.3	0.0002280
1583.4	0.0002104
1581.4	0.0002180
1579.5	0.0002497
1577.6	0.0001931
1575.6	0.0001586
1573.7	0.0002507
1571.8	0.0002444
1569.9	0.0001847
1567.9	0.0002069
1566.0	0.0002331
1564.1	0.0002787
1562.1	0.0003030
1560.2	0.0001700
1558.3	0.0001427
1556.4	0.0002552
1554.4	0.0002590
1552.5	0.0002703
1550.6	0.0002774
1548.6	0.0002789
1546.7	0.0002865
1544.8	0.0003081
1542.9	0.0003327
1540.9	0.0002622
1539.0	0.0002246
1537.1	0.0003212
1535.1	0.0003010
1533.2	0.0002226
1531.3	0.0002257
1529.4	0.0002057
1527.4	0.0001505
1525.5	0.0001143
1523.6	0.0000657
1521.6	-0.0000201
1519.7	0.0000238
1517.8	0.0000927
1515.9	0.0001687
1513.9	0.0003065
1512.0	0.0004472
1510.1	0.0005651
1508.1	0.0005301
1506.2	0.0004532
1504.3	0.0005110
1502.4	0.0004985
1500.4	0.0003844
1498.5	0.0002377
1496.6	0.0001057
1494.6	0.0000991
1492.7	0.0001205
1490.8	0.0000675
1488.9	0.0000322
1486.9	0.0000240
1485.0	0.0000339
1483.1	0.0000394
1481.1	0.0000480
1479.2	0.0000781
1477.3	0.0001090
1475.4	0.0001373
1473.4	0.0001314
1471.5	0.0001599
1469.6	0.0002197
1467.6	0.0002183
1465.7	0.0001760
1463.8	0.0001924
1461.9	0.0002623
1459.9	0.0002868
1458.0	0.0002088
1456.1	0.0001958
1454.1	0.0002661
1452.2	0.0002657
1450.3	0.0002752
1448.4	0.0002884
1446.4	0.0002833
1444.5	0.0002453
1442.6	0.0001960
1440.6	0.0001910
1438.7	0.0001789
1436.8	0.0001368
1434.9	0.0001729
1432.9	0.0001865
1431.0	0.0001483
1429.1	0.0001283
1427.1	0.0001287
1425.2	0.0001316
1423.3	0.0001626
1421.4	0.0001595
1419.4	0.0001084
1417.5	0.0001330
1415.6	0.0001409
1413.6	0.0001097
1411.7	0.0001010
1409.8	0.0001235
1407.9	0.0001396
1405.9	0.0001096
1404.0	0.0000727
1402.1	0.0000635
1400.1	0.0000598
1398.2	0.0000873
1396.3	0.0001086
1394.4	0.0000986
1392.4	0.0001172
1390.5	0.0001304
1388.6	0.0001272
1386.6	0.0001643
1384.7	0.0002186
1382.8	0.0002149
1380.9	0.0001903
1378.9	0.0001777
1377.0	0.0001707
1375.1	0.0001501
1373.1	0.0001384
1371.2	0.0001255
1369.3	0.0000829
1367.4	0.0000600
1365.4	0.0000731
1363.5	0.0000884
1361.6	0.0001042
1359.6	0.0001109
1357.7	0.0000981
1355.8	0.0000802
1353.9	0.0000722
1351.9	0.0000693
1350.0	0.0000651
1348.1	0.0000634
1346.1	0.0000538
1344.2	0.0000376
1342.3	0.0000330
1340.4	0.0000354
1338.4	0.0000414
1336.5	0.0000466
1334.6	0.0000500
1332.6	0.0000562
1330.7	0.0000573
1328.8	0.0000488
1326.9	0.0000470
1324.9	0.0000588
1323.0	0.0000686
1321.1	0.0000648
1319.1	0.0000531
1317.2	0.0000446
1315.3	0.0000467
1313.4	0.0000645
1311.4	0.0000906
1309.5	0.0001027
1307.6	0.0001030
1305.6	0.0001093
1303.7	0.0001150
1301.8	0.0001056
1299.9	0.0000927
1297.9	0.0001034
1296.0	0.0001377
1294.1	0.0001697
1292.1	0.0001918
1290.2	0.0002103
1288.3	0.0002305
1286.4	0.0002630
1284.4	0.0002978
1282.5	0.0003185
1280.6	0.0003370
1278.6	0.0003656
1276.7	0.0003986
1274.8	0.0004330
1272.9	0.0004729
1270.9	0.0005143
1269.0	0.0005480
1267.1	0.0005809
1265.1	0.0006235
1263.2	0.0006760
1261.3	0.0007377
1259.4	0.0007938
1257.4	0.0008228
1255.5	0.0008340
1253.6	0.0008416
1251.6	0.0008451
1249.7	0.0008550
1247.8	0.0008778
1245.9	0.0009133
1243.9	0.0009654
1242.0	0.0010280
1240.1	0.0010825
1238.1	0.0011183
1236.2	0.0011401
1234.3	0.0011568
1232.4	0.0011706
1230.4	0.0011664
1228.5	0.0011413
1226.6	0.0011282
1224.6	0.0011320
1222.7	0.0011288
1220.8	0.0011218
1218.9	0.0011297
1216.9	0.0011560
1215.0	0.0011836
1213.1	0.0011870
1211.1	0.0011608
1209.2	0.0011218
1207.3	0.0010962
1205.4	0.0011002
1203.4	0.0011101
1201.5	0.0010988
1199.6	0.0010838
1197.6	0.0010464
1195.7	0.0010194
1193.8	0.0010122
1191.9	0.0010228
1189.9	0.0010432
1188.0	0.0010525
1186.1	0.0010410
1184.1	0.0010256
1182.2	0.0010100
1180.3	0.0009909
1178.4	0.0009854
1176.4	0.0009903
1174.5	0.0009876
1172.6	0.0009896
1170.6	0.0010081
1168.7	0.0010191
1166.8	0.0009961
1164.9	0.0009578
1162.9	0.0009406
1161.0	0.0009372
1159.1	0.0009289
1157.1	0.0009279
1155.2	0.0009321
1153.3	0.0009204
1151.4	0.0009014
1149.4	0.0008750
1147.5	0.0008267
1145.6	0.0007954
1143.6	0.0008109
1141.7	0.0008262
1139.8	0.0008033
1137.9	0.0007635
1135.9	0.0007278
1134.0	0.0007004
1132.1	0.0006813
1130.1	0.0006542
1128.2	0.0006224
1126.3	0.0006099
1124.4	0.0006001
1122.4	0.0005782
1120.5	0.0005730
1118.6	0.0005867
1116.6	0.0005832
1114.7	0.0005537
1112.8	0.0005216
1110.9	0.0005010
1108.9	0.0004796
1107.0	0.0004290
1105.1	0.0003705
1103.1	0.0003462
1101.2	0.0003232
1099.3	0.0002765
1097.4	0.0002417
1095.4	0.0002255
1093.5	0.0002049
1091.6	0.0001725
1089.6	0.0001346
1087.7	0.0000989
1085.8	0.0000744
1083.9	0.0000670
1081.9	0.0000601
1080.0	0.0000385
1078.1	0.0000120
1076.1	-0.0000052
1074.2	-0.0000062
1072.3	-0.0000002
1070.4	-0.0000059
1068.4	-0.0000144
1066.5	0.0000018
1064.6	0.0000268
1062.6	0.0000176
1060.7	-0.0000133
1058.8	-0.0000134
1056.9	0.0000275
1054.9	0.0000811
1053.0	0.0001219
1051.1	0.0001391
1049.1	0.0001382
1047.2	0.0001299
1045.3	0.0001375
1043.4	0.0001758
1041.4	0.0002072
1039.5	0.0002104
1037.6	0.0002055
1035.6	0.0001955
1033.7	0.0001863
1031.8	0.0002003
1029.9	0.0002259
1027.9	0.0002224
1026.0	0.0002030
1024.1	0.0002027
1022.1	0.0001976
1020.2	0.0001725
1018.3	0.0001634
1016.4	0.0001989
1014.4	0.0002536
1012.5	0.0002879
1010.6	0.0002961
1008.6	0.0002773
1006.7	0.0002361
1004.8	0.0001990
1002.9	0.0001966
1000.9	0.0002322
999.0	0.0002724
997.1	0.0002854
995.1	0.0002821
993.2	0.0002849
991.3	0.0002950
989.4	0.0003181
987.4	0.0003366
985.5	0.0003159
983.6	0.0002829
981.6	0.0002628
979.7	0.0002237
977.8	0.0001682
975.9	0.0001414
973.9	0.0001521
972.0	0.0001661
970.1	0.0001606
968.1	0.0001456
966.2	0.0001490
964.3	0.0001542
962.4	0.0001135
960.4	0.0000547
958.5	0.0000300
956.6	0.0000221
954.6	0.0000160
952.7	0.0000195
950.8	0.0000100
948.9	-0.0000161
946.9	-0.0000253
945.0	-0.0000167
943.1	-0.0000158
941.1	-0.0000315
939.2	-0.0000712
937.3	-0.0001387
935.4	-0.0001800
933.4	-0.0001470
931.5	-0.0001029
929.6	-0.0001076
927.6	-0.0001185
925.7	-0.0001078
923.8	-0.0000931
921.9	-0.0000700
919.9	-0.0000602
918.0	-0.0001015
916.1	-0.0001620
914.1	-0.0001803
912.2	-0.0001588
910.3	-0.0001505
908.4	-0.0001640
906.4	-0.0001698
904.5	-0.0001724
902.6	-0.0001679
900.6	-0.0001092
898.7	-0.0000188
896.8	0.0000046
894.9	-0.0000393
892.9	-0.0000776
891.0	-0.0001080
889.1	-0.0001316
887.1	-0.0001064
885.2	-0.0000397
883.3	-0.0000011
881.4	0.0000083
879.4	0.0000951
877.5	0.0002259
875.6	0.0002133
873.6	0.0000933
871.7	0.0000281
869.8	-0.0000148
867.9	-0.0000714
865.9	-0.0000925
864.0	-0.0000818
862.1	-0.0000576
860.1	-0.0000624
858.2	-0.0000881
856.3	-0.0000709
854.4	-0.0000816
852.4	-0.0001798
850.5	-0.0002826
848.6	-0.0003482
