3997.9	0.0000038
3996.0	0.0000108
3994.1	0.0000141
3992.1	0.0000151
3990.2	0.0000117
3988.3	0.0000077
3986.3	0.0000064
3984.4	0.0000049
3982.5	0.0000033
3980.6	-0.0000053
3978.6	-0.0000261
3976.7	-0.0000367
3974.8	-0.0000236
3972.8	-0.0000168
3970.9	-0.0000312
3969.0	-0.0000491
3967.1	-0.0000532
3965.1	-0.0000317
3963.2	0.0000084
3961.3	0.0000418
3959.3	0.0000455
3957.4	0.0000153
3955.5	-0.0000239
3953.6	-0.0000404
3951.6	-0.0000319
3949.7	-0.0000172
3947.8	-0.0000039
3945.8	0.0000002
3943.9	-0.0000131
3942.0	-0.0000270
3940.1	-0.0000290
3938.1	-0.0000252
3936.2	-0.0000225
3934.3	-0.0000290
3932.3	-0.0000373
3930.4	-0.0000313
3928.5	-0.0000132
3926.6	0.0000037
3924.6	0.0000115
3922.7	0.0000113
3920.8	0.0000084
3918.8	-0.0000029
3916.9	-0.0000205
3915.0	-0.0000191
3913.1	0.0000006
3911.1	0.0000033
3909.2	-0.0000190
3907.3	-0.0000401
3905.3	-0.0000456
3903.4	-0.0000407
3901.5	-0.0000218
3899.6	0.0000032
3897.6	0.0000075
3895.7	-0.0000053
3893.8	-0.0000118
3891.8	-0.0000094
3889.9	0.0000010
3888.0	0.0000154
3886.1	0.0000215
3884.1	0.0000233
3882.2	0.0000277
3880.3	0.0000277
3878.3	0.0000194
3876.4	0.0000085
3874.5	0.0000110
3872.6	0.0000281
3870.6	0.0000317
3868.7	0.0000212
3866.8	0.0000209
3864.8	0.0000202
3862.9	0.0000114
3861.0	0.0000124
3859.1	0.0000273
3857.1	0.0000451
3855.2	0.0000474
3853.3	0.0000313
3851.3	0.0000152
3849.4	-0.0000006
3847.5	-0.0000184
3845.6	-0.0000252
3843.6	-0.0000181
3841.7	-0.0000077
3839.8	-0.0000002
3837.8	0.0000096
3835.9	0.0000277
3834.0	0.0000360
3832.1	0.0000179
3830.1	-0.0000029
3828.2	-0.0000053
3826.3	0.0000002
3824.3	0.0000037
3822.4	0.0000038
3820.5	0.0000079
3818.6	0.0000246
3816.6	0.0000409
3814.7	0.0000480
3812.8	0.0000495
3810.8	0.0000391
3808.9	0.0000209
3807.0	0.0000131
3805.1	0.0000135
3803.1	0.0000188
3801.2	0.0000397
3799.3	0.0000555
3797.3	0.0000465
3795.4	0.0000364
3793.5	0.0000335
3791.6	0.0000236
3789.6	0.0000199
3787.7	0.0000361
3785.8	0.0000488
3783.8	0.0000422
3781.9	0.0000353
3780.0	0.0000292
3778.1	0.0000115
3776.1	-0.0000026
3774.2	0.0000037
3772.3	0.0000206
3770.3	0.0000294
3768.4	0.0000230
3766.5	0.0000083
3764.6	0.0000020
3762.6	0.0000062
3760.7	0.0000040
3758.8	0.0000042
3756.8	0.0000239
3754.9	0.0000432
3753.0	0.0000357
3751.1	0.0000117
3749.1	-0.0000062
3747.2	-0.0000170
3745.3	-0.0000143
3743.3	0.0000067
3741.4	0.0000190
3739.5	0.0000140
3737.6	0.0000084
3735.6	0.0000072
3733.7	0.0000094
3731.8	0.0000111
3729.8	0.0000138
3727.9	0.0000210
3726.0	0.0000196
3724.1	0.0000067
3722.1	-0.0000034
3720.2	-0.0000073
3718.3	-0.0000057
3716.3	0.0000071
3714.4	0.0000258
3712.5	0.0000323
3710.6	0.0000167
3708.6	-0.0000044
3706.7	-0.0000067
3704.8	0.0000047
3702.8	0.0000112
3700.9	0.0000204
3699.0	0.0000433
3697.1	0.0000555
3695.1	0.0000433
3693.2	0.0000337
3691.3	0.0000364
3689.3	0.0000348
3687.4	0.0000260
3685.5	0.0000130
3683.6	-0.0000083
3681.6	-0.0000255
3679.7	-0.0000191
3677.8	0.0000030
3675.8	0.0000218
3673.9	0.0000304
3672.0	0.0000329
3670.1	0.0000329
3668.1	0.0000274
3666.2	0.0000218
3664.3	0.0000287
3662.3	0.0000396
3660.4	0.0000369
3658.5	0.0000277
3656.6	0.0000243
3654.6	0.0000165
3652.7	-0.0000042
3650.8	-0.0000221
3648.8	-0.0000234
3646.9	-0.0000224
3645.0	-0.0000336
3643.1	-0.0000308
3641.1	-0.0000003
3639.2	0.0000277
3637.3	0.0000418
3635.3	0.0000384
3633.4	0.0000137
3631.5	-0.0000003
3629.6	0.0000050
3627.6	-0.0000029
3625.7	-0.0000148
3623.8	-0.0000054
3621.8	0.0000087
3619.9	0.0000098
3618.0	0.0000040
3616.1	-0.0000004
3614.1	0.0000011
3612.2	0.0000088
3610.3	0.0000145
3608.3	0.0000073
3606.4	-0.0000165
3604.5	-0.0000490
3602.6	-0.0000596
3600.6	-0.0000251
3598.7	0.0000214
3596.8	0.0000336
3594.8	0.0000145
3592.9	-0.0000083
3591.0	-0.0000229
3589.1	-0.0000353
3587.1	-0.0000487
3585.2	-0.0000422
3583.3	-0.0000147
3581.3	-0.0000009
3579.4	-0.0000021
3577.5	0.0000056
3575.6	0.0000207
3573.6	0.0000360
3571.7	0.0000503
3569.8	0.0000574
3567.8	0.0000588
3565.9	0.0000550
3564.0	0.0000357
3562.1	0.0000092
3560.1	0.0000069
3558.2	0.0000367
3556.3	0.0000668
3554.3	0.0000670
3552.4	0.0000466
3550.5	0.0000241
3548.6	-0.0000011
3546.6	-0.0000147
3544.7	-0.0000030
3542.8	0.0000060
3540.8	-0.0000080
3538.9	-0.0000204
3537.0	-0.0000071
3535.1	0.0000266
3533.1	0.0000538
3531.2	0.0000540
3529.3	0.0000480
3527.3	0.0000515
3525.4	0.0000419
3523.5	0.0000178
3521.6	-0.0000000
3519.6	-0.0000114
3517.7	-0.0000215
3515.8	-0.0000165
3513.8	0.0000069
3511.9	0.0000208
3510.0	0.0000111
3508.1	0.0000016
3506.1	0.0000103
3504.2	0.0000186
3502.3	0.0000139
3500.3	0.0000114
3498.4	0.0000201
3496.5	0.0000337
3494.6	0.0000360
3492.6	0.0000144
3490.7	-0.0000169
3488.8	-0.0000293
3486.8	-0.0000191
3484.9	-0.0000122
3483.0	-0.0000172
3481.1	-0.0000194
3479.1	-0.0000106
3477.2	0.0000164
3475.3	0.0000408
3473.3	0.0000234
3471.4	-0.0000048
3469.5	0.0000108
3467.6	0.0000374
3465.6	0.0000258
3463.7	0.0000026
3461.8	-0.0000008
3459.8	0.0000029
3457.9	-0.0000048
3456.0	-0.0000237
3454.1	-0.0000432
3452.1	-0.0000570
3450.2	-0.0000558
3448.3	-0.0000247
3446.3	0.0000162
3444.4	0.0000201
3442.5	-0.0000088
3440.6	-0.0000148
3438.6	0.0000101
3436.7	0.0000214
3434.8	0.0000134
3432.8	0.0000105
3430.9	0.0000099
3429.0	0.0000030
3427.1	-0.0000071
3425.1	-0.0000193
3423.2	-0.0000287
3421.3	-0.0000235
3419.3	-0.0000063
3417.4	0.0000063
3415.5	0.0000101
3413.6	-0.0000007
3411.6	-0.0000322
3409.7	-0.0000516
3407.8	-0.0000297
3405.8	0.0000104
3403.9	0.0000224
3402.0	-0.0000141
3400.1	-0.0000611
3398.1	-0.0000647
3396.2	-0.0000361
3394.3	-0.0000201
3392.3	-0.0000175
3390.4	0.0000015
3388.5	0.0000302
3386.6	0.0000423
3384.6	0.0000345
3382.7	0.0000161
3380.8	0.0000037
3378.8	0.0000080
3376.9	0.0000128
3375.0	0.0000062
3373.1	-0.0000007
3371.1	-0.0000003
3369.2	0.0000115
3367.3	0.0000286
3365.3	0.0000344
3363.4	0.0000328
3361.5	0.0000369
3359.6	0.0000298
3357.6	0.0000064
3355.7	0.0000033
3353.8	0.0000282
3351.8	0.0000412
3349.9	0.0000333
3348.0	0.0000329
3346.1	0.0000354
3344.1	0.0000198
3342.2	0.0000049
3340.3	0.0000010
3338.3	-0.0000079
3336.4	-0.0000127
3334.5	-0.0000081
3332.6	-0.0000168
3330.6	-0.0000439
3328.7	-0.0000607
3326.8	-0.0000445
3324.8	-0.0000183
3322.9	-0.0000198
3321.0	-0.0000426
3319.1	-0.0000459
3317.1	-0.0000193
3315.2	0.0000091
3313.3	0.0000254
3311.3	0.0000335
3309.4	0.0000309
3307.5	0.0000171
3305.6	0.0000014
3303.6	-0.0000085
3301.7	-0.0000110
3299.8	-0.0000113
3297.8	-0.0000104
3295.9	0.0000024
3294.0	0.0000240
3292.1	0.0000258
3290.1	-0.0000070
3288.2	-0.0000459
3286.3	-0.0000531
3284.3	-0.0000334
3282.4	-0.0000156
3280.5	-0.0000088
3278.6	-0.0000058
3276.6	-0.0000053
3274.7	-0.0000106
3272.8	-0.0000227
3270.8	-0.0000371
3268.9	-0.0000402
3267.0	-0.0000267
3265.1	-0.0000194
3263.1	-0.0000285
3261.2	-0.0000274
3259.3	-0.0000052
3257.3	0.0000098
3255.4	-0.0000057
3253.5	-0.0000327
3251.6	-0.0000443
3249.6	-0.0000397
3247.7	-0.0000294
3245.8	-0.0000195
3243.8	-0.0000029
3241.9	0.0000130
3240.0	0.0000038
3238.1	-0.0000233
3236.1	-0.0000383
3234.2	-0.0000396
3232.3	-0.0000461
3230.3	-0.0000524
3228.4	-0.0000401
3226.5	-0.0000163
3224.6	-0.0000003
3222.6	0.0000063
3220.7	0.0000113
3218.8	0.0000219
3216.8	0.0000327
3214.9	0.0000290
3213.0	0.0000179
3211.1	0.0000160
3209.1	0.0000094
3207.2	-0.0000050
3205.3	-0.0000029
3203.3	0.0000064
3201.4	-0.0000023
3199.5	-0.0000177
3197.6	-0.0000179
3195.6	-0.0000046
3193.7	0.0000068
3191.8	0.0000130
3189.8	0.0000187
3187.9	0.0000140
3186.0	-0.0000056
3184.1	-0.0000184
3182.1	-0.0000101
3180.2	-0.0000026
3178.3	-0.0000172
3176.3	-0.0000441
3174.4	-0.0000614
3172.5	-0.0000567
3170.6	-0.0000384
3168.6	-0.0000272
3166.7	-0.0000221
3164.8	-0.0000086
3162.8	0.0000045
3160.9	-0.0000007
3159.0	-0.0000145
3157.1	-0.0000123
3155.1	0.0000016
3153.2	0.0000057
3151.3	0.0000002
3149.3	-0.0000018
3147.4	-0.0000064
3145.5	-0.0000275
3143.6	-0.0000477
3141.6	-0.0000454
3139.7	-0.0000331
3137.8	-0.0000268
3135.8	-0.0000258
3133.9	-0.0000256
3132.0	-0.0000255
3130.1	-0.0000244
3128.1	-0.0000230
3126.2	-0.0000322
3124.3	-0.0000477
3122.3	-0.0000534
3120.4	-0.0000541
3118.5	-0.0000494
3116.6	-0.0000346
3114.6	-0.0000227
3112.7	-0.0000219
3110.8	-0.0000310
3108.8	-0.0000404
3106.9	-0.0000366
3105.0	-0.0000180
3103.1	0.0000036
3101.1	0.0000080
3099.2	-0.0000137
3097.3	-0.0000339
3095.3	-0.0000228
3093.4	0.0000069
3091.5	0.0000203
3089.6	0.0000084
3087.6	-0.0000068
3085.7	-0.0000140
3083.8	-0.0000158
3081.8	-0.0000064
3079.9	0.0000086
3078.0	0.0000117
3076.1	0.0000128
3074.1	0.0000240
3072.2	0.0000240
3070.3	-0.0000000
3068.3	-0.0000265
3066.4	-0.0000367
3064.5	-0.0000290
3062.6	-0.0000082
3060.6	0.0000073
3058.7	0.0000069
3056.8	0.0000036
3054.8	-0.0000007
3052.9	-0.0000123
3051.0	-0.0000239
3049.1	-0.0000304
3047.1	-0.0000335
3045.2	-0.0000250
3043.3	-0.0000052
3041.3	0.0000075
3039.4	0.0000060
3037.5	-0.0000026
3035.6	-0.0000166
3033.6	-0.0000289
3031.7	-0.0000258
3029.8	-0.0000068
3027.8	0.0000123
3025.9	0.0000177
3024.0	0.0000175
3022.1	0.0000256
3020.1	0.0000354
3018.2	0.0000303
3016.3	0.0000152
3014.3	0.0000090
3012.4	0.0000126
3010.5	0.0000158
3008.6	0.0000130
3006.6	0.0000003
3004.7	-0.0000159
3002.8	-0.0000140
3000.8	0.0000085
2998.9	0.0000329
2997.0	0.0000470
2995.1	0.0000544
2993.1	0.0000493
2991.2	0.0000363
2989.3	0.0000185
2987.3	0.0000033
2985.4	0.0000025
2983.5	0.0000151
2981.6	0.0000322
2979.6	0.0000412
2977.7	0.0000379
2975.8	0.0000277
2973.8	0.0000144
2971.9	0.0000095
2970.0	0.0000203
2968.1	0.0000394
2966.1	0.0000560
2964.2	0.0000585
2962.3	0.0000428
2960.3	0.0000226
2958.4	0.0000172
2956.5	0.0000303
2954.6	0.0000417
2952.6	0.0000338
2950.7	0.0000309
2948.8	0.0000507
2946.8	0.0000662
2944.9	0.0000690
2943.0	0.0000775
2941.1	0.0000869
2939.1	0.0000802
2937.2	0.0000625
2935.3	0.0000560
2933.3	0.0000645
2931.4	0.0000699
2929.5	0.0000779
2927.6	0.0000966
2925.6	0.0000990
2923.7	0.0000804
2921.8	0.0000696
2919.8	0.0000646
2917.9	0.0000517
2916.0	0.0000417
2914.1	0.0000380
2912.1	0.0000328
2910.2	0.0000315
2908.3	0.0000395
2906.3	0.0000485
2904.4	0.0000485
2902.5	0.0000407
2900.6	0.0000320
2898.6	0.0000243
2896.7	0.0000209
2894.8	0.0000256
2892.8	0.0000280
2890.9	0.0000146
2889.0	-0.0000014
2887.1	-0.0000002
2885.1	0.0000021
2883.2	-0.0000053
2881.3	-0.0000020
2879.3	0.0000139
2877.4	0.0000261
2875.5	0.0000308
2873.6	0.0000280
2871.6	0.0000152
2869.7	0.0000021
2867.8	0.0000063
2865.8	0.0000230
2863.9	0.0000327
2862.0	0.0000390
2860.1	0.0000497
2858.1	0.0000526
2856.2	0.0000450
2854.3	0.0000373
2852.3	0.0000280
2850.4	0.0000160
2848.5	0.0000080
2846.6	0.0000057
2844.6	0.0000087
2842.7	0.0000140
2840.8	0.0000106
2838.8	-0.0000027
2836.9	-0.0000060
2835.0	0.0000068
2833.1	0.0000091
2831.1	-0.0000045
2829.2	-0.0000037
2827.3	0.0000098
2825.3	0.0000094
2823.4	0.0000063
2821.5	0.0000127
2819.6	0.0000190
2817.6	0.0000226
2815.7	0.0000207
2813.8	0.0000133
2811.8	0.0000106
2809.9	0.0000152
2808.0	0.0000221
2806.1	0.0000289
2804.1	0.0000306
2802.2	0.0000235
2800.3	0.0000176
2798.3	0.0000163
2796.4	0.0000085
2794.5	0.0000024
2792.6	0.0000147
2790.6	0.0000316
2788.7	0.0000287
2786.8	0.0000099
2784.8	-0.0000043
2782.9	0.0000007
2781.0	0.0000161
2779.1	0.0000180
2777.1	0.0000066
2775.2	-0.0000021
2773.3	-0.0000105
2771.3	-0.0000235
2769.4	-0.0000328
2767.5	-0.0000321
2765.6	-0.0000287
2763.6	-0.0000305
2761.7	-0.0000283
2759.8	-0.0000161
2757.8	-0.0000066
2755.9	-0.0000104
2754.0	-0.0000229
2752.1	-0.0000274
2750.1	-0.0000217
2748.2	-0.0000228
2746.3	-0.0000314
2744.3	-0.0000314
2742.4	-0.0000190
2740.5	-0.0000071
2738.6	-0.0000038
2736.6	-0.0000067
2734.7	-0.0000093
2732.8	-0.0000028
2730.8	0.0000115
2728.9	0.0000189
2727.0	0.0000127
2725.1	0.0000052
2723.1	0.0000036
2721.2	0.0000004
2719.3	-0.0000068
2717.3	-0.0000101
2715.4	-0.0000071
2713.5	-0.0000034
2711.6	-0.0000056
2709.6	-0.0000098
2707.7	-0.0000121
2705.8	-0.0000179
2703.8	-0.0000196
2701.9	-0.0000003
2700.0	0.0000297
2698.1	0.0000400
2696.1	0.0000258
2694.2	0.0000129
2692.3	0.0000102
2690.3	0.0000019
2688.4	-0.0000159
2686.5	-0.0000330
2684.6	-0.0000461
2682.6	-0.0000594
2680.7	-0.0000683
2678.8	-0.0000639
2676.8	-0.0000453
2674.9	-0.0000204
2673.0	-0.0000007
2671.1	0.0000044
2669.1	-0.0000020
2667.2	-0.0000073
2665.3	-0.0000098
2663.3	-0.0000120
2661.4	-0.0000106
2659.5	-0.0000073
2657.6	-0.0000014
2655.6	0.0000007
2653.7	-0.0000121
2651.8	-0.0000252
2649.8	-0.0000197
2647.9	-0.0000034
2646.0	0.0000070
2644.1	0.0000117
2642.1	0.0000206
2640.2	0.0000286
2638.3	0.0000284
2636.3	0.0000265
2634.4	0.0000299
2632.5	0.0000346
2630.6	0.0000252
2628.6	0.0000040
2626.7	-0.0000011
2624.8	0.0000065
2622.8	-0.0000007
2620.9	-0.0000133
2619.0	-0.0000080
2617.1	0.0000107
2615.1	0.0000173
2613.2	0.0000017
2611.3	-0.0000109
2609.3	-0.0000027
2607.4	0.0000161
2605.5	0.0000329
2603.6	0.0000351
2601.6	0.0000199
2599.7	0.0000023
2597.8	-0.0000055
2595.8	0.0000013
2593.9	0.0000148
2592.0	0.0000140
2590.1	-0.0000073
2588.1	-0.0000288
2586.2	-0.0000291
2584.3	-0.0000087
2582.3	0.0000147
2580.4	0.0000258
2578.5	0.0000250
2576.6	0.0000239
2574.6	0.0000255
2572.7	0.0000238
2570.8	0.0000241
2568.8	0.0000288
2566.9	0.0000216
2565.0	0.0000004
2563.1	-0.0000085
2561.1	-0.0000005
2559.2	0.0000009
2557.3	-0.0000058
2555.3	-0.0000115
2553.4	-0.0000165
2551.5	-0.0000168
2549.6	-0.0000109
2547.6	0.0000005
2545.7	0.0000154
2543.8	0.0000197
2541.8	0.0000059
2539.9	-0.0000138
2538.0	-0.0000213
2536.1	-0.0000081
2534.1	0.0000102
2532.2	0.0000156
2530.3	0.0000122
2528.3	0.0000052
2526.4	-0.0000021
2524.5	0.0000043
2522.6	0.0000228
2520.6	0.0000296
2518.7	0.0000222
2516.8	0.0000143
2514.8	0.0000082
2512.9	-0.0000003
2511.0	-0.0000111
2509.1	-0.0000169
2507.1	-0.0000168
2505.2	-0.0000187
2503.3	-0.0000231
2501.3	-0.0000271
2499.4	-0.0000253
2497.5	-0.0000153
2495.6	-0.0000026
2493.6	0.0000073
2491.7	0.0000121
2489.8	0.0000141
2487.8	0.0000122
2485.9	0.0000010
2484.0	-0.0000151
2482.1	-0.0000222
2480.1	-0.0000057
2478.2	0.0000252
2476.3	0.0000349
2474.3	0.0000090
2472.4	-0.0000276
2470.5	-0.0000388
2468.6	-0.0000173
2466.6	0.0000065
2464.7	0.0000131
2462.8	0.0000093
2460.8	0.0000026
2458.9	0.0000004
2457.0	-0.0000004
2455.1	-0.0000038
2453.1	-0.0000056
2451.2	-0.0000044
2449.3	0.0000060
2447.3	0.0000219
2445.4	0.0000252
2443.5	0.0000155
2441.6	0.0000076
2439.6	0.0000078
2437.7	0.0000153
2435.8	0.0000255
2433.8	0.0000324
2431.9	0.0000354
2430.0	0.0000278
2428.1	0.0000049
2426.1	-0.0000116
2424.2	-0.0000035
2422.3	0.0000129
2420.3	0.0000134
2418.4	0.0000037
2416.5	0.0000035
2414.6	0.0000078
2412.6	0.0000121
2410.7	0.0000255
2408.8	0.0000354
2406.8	0.0000350
2404.9	0.0000375
2403.0	0.0000440
2401.1	0.0000466
2399.1	0.0000386
2397.2	0.0000254
2395.3	0.0000182
2393.3	0.0000122
2391.4	0.0000118
2389.5	0.0000315
2387.6	0.0000580
2385.6	0.0000644
2383.7	0.0000514
2381.8	0.0000427
2379.8	0.0000409
2377.9	0.0000371
2376.0	0.0000371
2374.1	0.0000421
2372.1	0.0000482
2370.2	0.0000474
2368.3	0.0000337
2366.3	0.0000207
2364.4	0.0000118
2362.5	-0.0000018
2360.6	-0.0000046
2358.6	0.0000154
2356.7	0.0000370
2354.8	0.0000369
2352.8	0.0000179
2350.9	0.0000027
2349.0	0.0000132
2347.1	0.0000455
2345.1	0.0000782
2343.2	0.0001015
2341.3	0.0001138
2339.3	0.0001086
2337.4	0.0000872
2335.5	0.0000593
2333.6	0.0000344
2331.6	0.0000244
2329.7	0.0000338
2327.8	0.0000444
2325.8	0.0000388
2323.9	0.0000213
2322.0	0.0000083
2320.1	0.0000169
2318.1	0.0000358
2316.2	0.0000361
2314.3	0.0000250
2312.3	0.0000266
2310.4	0.0000323
2308.5	0.0000210
2306.6	-0.0000016
2304.6	-0.0000117
2302.7	-0.0000018
2300.8	0.0000111
2298.8	0.0000092
2296.9	0.0000061
2295.0	0.0000220
2293.1	0.0000395
2291.1	0.0000369
2289.2	0.0000201
2287.3	0.0000067
2285.3	0.0000087
2283.4	0.0000173
2281.5	0.0000194
2279.6	0.0000179
2277.6	0.0000158
2275.7	0.0000105
2273.8	0.0000026
2271.8	-0.0000087
2269.9	-0.0000225
2268.0	-0.0000321
2266.1	-0.0000311
2264.1	-0.0000214
2262.2	-0.0000135
2260.3	-0.0000109
2258.3	-0.0000101
2256.4	-0.0000117
2254.5	-0.0000129
2252.6	-0.0000115
2250.6	-0.0000100
2248.7	-0.0000072
2246.8	-0.0000010
2244.8	0.0000064
2242.9	0.0000078
2241.0	0.0000037
2239.1	0.0000051
2237.1	0.0000114
2235.2	0.0000084
2233.3	-0.0000083
2231.3	-0.0000289
2229.4	-0.0000400
2227.5	-0.0000342
2225.6	-0.0000138
2223.6	0.0000093
2221.7	0.0000208
2219.8	0.0000139
2217.8	0.0000005
2215.9	0.0000023
2214.0	0.0000159
2212.1	0.0000217
2210.1	0.0000225
2208.2	0.0000242
2206.3	0.0000231
2204.3	0.0000189
2202.4	0.0000122
2200.5	0.0000132
2198.6	0.0000239
2196.6	0.0000206
2194.7	0.0000039
2192.8	0.0000011
2190.8	0.0000099
2188.9	0.0000148
2187.0	0.0000156
2185.1	0.0000082
2183.1	-0.0000038
2181.2	-0.0000045
2179.3	0.0000096
2177.3	0.0000203
2175.4	0.0000136
2173.5	0.0000053
2171.6	0.0000095
2169.6	0.0000150
2167.7	0.0000075
2165.8	-0.0000023
2163.8	0.0000002
2161.9	0.0000084
2160.0	0.0000156
2158.1	0.0000169
2156.1	0.0000127
2154.2	0.0000137
2152.3	0.0000174
2150.3	0.0000144
2148.4	0.0000087
2146.5	0.0000098
2144.6	0.0000130
2142.6	0.0000152
2140.7	0.0000215
2138.8	0.0000217
2136.8	0.0000111
2134.9	0.0000038
2133.0	0.0000085
2131.1	0.0000249
2129.1	0.0000375
2127.2	0.0000252
2125.3	-0.0000007
2123.3	-0.0000125
2121.4	-0.0000055
2119.5	0.0000118
2117.6	0.0000275
2115.6	0.0000285
2113.7	0.0000106
2111.8	-0.0000162
2109.8	-0.0000297
2107.9	-0.0000233
2106.0	-0.0000104
2104.1	0.0000047
2102.1	0.0000187
2100.2	0.0000203
2098.3	0.0000167
2096.3	0.0000025
2094.4	-0.0000104
2092.5	-0.0000274
2090.6	-0.0000673
2088.6	-0.0001579
2086.7	-0.0002909
2084.8	-0.0003957
2082.8	-0.0004087
2080.9	-0.0003433
2079.0	-0.0002572
2077.1	-0.0001881
2075.1	-0.0001399
2073.2	-0.0001058
2071.3	-0.0000826
2069.3	-0.0000592
2067.4	-0.0000187
2065.5	0.0000357
2063.6	0.0000866
2061.6	0.0001241
2059.7	0.0001452
2057.8	0.0001589
2055.8	0.0001785
2053.9	0.0001950
2052.0	0.0001889
2050.1	0.0001596
2048.1	0.0001303
2046.2	0.0001216
2044.3	0.0001258
2042.3	0.0001257
2040.4	0.0001199
2038.5	0.0001130
2036.6	0.0001034
2034.6	0.0000918
2032.7	0.0000836
2030.8	0.0000817
2028.8	0.0000794
2026.9	0.0000717
2025.0	0.0000646
2023.1	0.0000613
2021.1	0.0000545
2019.2	0.0000477
2017.3	0.0000485
2015.3	0.0000497
2013.4	0.0000441
2011.5	0.0000343
2009.6	0.0000242
2007.6	0.0000190
2005.7	0.0000190
2003.8	0.0000207
2001.8	0.0000188
1999.9	0.0000123
1998.0	0.0000101
1996.1	0.0000149
1994.1	0.0000218
1992.2	0.0000268
1990.3	0.0000249
1988.3	0.0000157
1986.4	0.0000096
1984.5	0.0000142
1982.6	0.0000206
1980.6	0.0000163
1978.7	0.0000046
1976.8	-0.0000033
1974.8	-0.0000059
1972.9	-0.0000131
1971.0	-0.0000267
1969.1	-0.0000347
1967.1	-0.0000280
1965.2	-0.0000096
1963.3	0.0000125
1961.4	0.0000336
1959.4	0.0000459
1957.5	0.0000386
1955.6	0.0000192
1953.6	0.0000073
1951.7	0.0000063
1949.8	0.0000034
1947.9	-0.0000049
1945.9	-0.0000094
1944.0	-0.0000100
1942.1	-0.0000089
1940.1	-0.0000041
1938.2	-0.0000006
1936.3	0.0000050
1934.4	0.0000171
1932.4	0.0000273
1930.5	0.0000348
1928.6	0.0000361
1926.6	0.0000217
1924.7	0.0000011
1922.8	-0.0000145
1920.9	-0.0000288
1918.9	-0.0000345
1917.0	-0.0000257
1915.1	-0.0000129
1913.1	0.0000053
1911.2	0.0000301
1909.3	0.0000412
1907.4	0.0000290
1905.4	0.0000116
1903.5	0.0000027
1901.6	-0.0000018
1899.6	-0.0000019
1897.7	0.0000047
1895.8	0.0000062
1893.9	-0.0000065
1891.9	-0.0000216
1890.0	-0.0000229
1888.1	-0.0000143
1886.1	-0.0000105
1884.2	-0.0000098
1882.3	-0.0000028
1880.4	0.0000033
1878.4	0.0000015
1876.5	-0.0000013
1874.6	-0.0000023
1872.6	-0.0000043
1870.7	-0.0000087
1868.8	-0.0000075
1866.9	0.0000070
1864.9	0.0000220
1863.0	0.0000305
1861.1	0.0000393
1859.1	0.0000441
1857.2	0.0000398
1855.3	0.0000298
1853.4	0.0000203
1851.4	0.0000213
1849.5	0.0000306
1847.6	0.0000352
1845.6	0.0000378
1843.7	0.0000467
1841.8	0.0000584
1839.9	0.0000661
1837.9	0.0000649
1836.0	0.0000607
1834.1	0.0000641
1832.1	0.0000725
1830.2	0.0000746
1828.3	0.0000618
1826.4	0.0000435
1824.4	0.0000454
1822.5	0.0000621
1820.6	0.0000625
1818.6	0.0000433
1816.7	0.0000268
1814.8	0.0000244
1812.9	0.0000267
1810.9	0.0000222
1809.0	0.0000123
1807.1	0.0000021
1805.1	-0.0000030
1803.2	0.0000015
1801.3	0.0000113
1799.4	0.0000202
1797.4	0.0000266
1795.5	0.0000302
1793.6	0.0000343
1791.6	0.0000421
1789.7	0.0000520
1787.8	0.0000619
1785.9	0.0000630
1783.9	0.0000473
1782.0	0.0000279
1780.1	0.0000248
1778.1	0.0000325
1776.2	0.0000351
1774.3	0.0000375
1772.4	0.0000536
1770.4	0.0000782
1768.5	0.0001020
1766.6	0.0001249
1764.6	0.0001434
1762.7	0.0001501
1760.8	0.0001445
1758.9	0.0001398
1756.9	0.0001456
1755.0	0.0001492
1753.1	0.0001356
1751.1	0.0001154
1749.2	0.0001060
1747.3	0.0001107
1745.4	0.0001264
1743.4	0.0001475
1741.5	0.0001754
1739.6	0.0002225
1737.6	0.0002958
1735.7	0.0003908
1733.8	0.0005010
1731.9	0.0006195
1729.9	0.0007385
1728.0	0.0008479
1726.1	0.0009453
1724.1	0.0010379
1722.2	0.0011155
1720.3	0.0011516
1718.4	0.0011352
1716.4	0.0010827
1714.5	0.0010131
1712.6	0.0009329
1710.6	0.0008514
1708.7	0.0007774
1706.8	0.0007104
1704.9	0.0006476
1702.9	0.0005894
1701.0	0.0005400
1699.1	0.0005012
1697.1	0.0004693
1695.2	0.0004367
1693.3	0.0003967
1691.4	0.0003529
1689.4	0.0003147
1687.5	0.0002862
1685.6	0.0002660
1683.6	0.0002524
1681.7	0.0002412
1679.8	0.0002284
1677.9	0.0002172
1675.9	0.0002131
1674.0	0.0002147
1672.1	0.0002151
1670.1	0.0002117
1668.2	0.0002089
1666.3	0.0002055
1664.4	0.0001964
1662.4	0.0001885
1660.5	0.0001918
1658.6	0.0001992
1656.6	0.0002060
1654.7	0.0002176
1652.8	0.0002309
1650.9	0.0002395
1648.9	0.0002395
1647.0	0.0002221
1645.1	0.0001900
1643.1	0.0001601
1641.2	0.0001366
1639.3	0.0001138
1637.4	0.0000918
1635.4	0.0000617
1633.5	0.0000226
1631.6	0.0000003
1629.6	0.0000108
1627.7	0.0000425
1625.8	0.0000769
1623.9	0.0000942
1621.9	0.0000903
1620.0	0.0000825
1618.1	0.0000779
1616.1	0.0000717
1614.2	0.0000700
1612.3	0.0000806
1610.4	0.0000993
1608.4	0.0001147
1606.5	0.0001160
1604.6	0.0001102
1602.6	0.0001178
1600.7	0.0001309
1598.8	0.0001282
1596.9	0.0001210
1594.9	0.0001229
1593.0	0.0001219
1591.1	0.0001104
1589.1	0.0000992
1587.2	0.0000952
1585.3	0.0000958
1583.4	0.0000990
1581.4	0.0000992
1579.5	0.0000924
1577.6	0.0000877
1575.6	0.0000906
1573.7	0.0000900
1571.8	0.0000830
1569.9	0.0000831
1567.9	0.0000885
1566.0	0.0000880
1564.1	0.0000869
1562.1	0.0000925
1560.2	0.0000992
1558.3	0.0000997
1556.4	0.0000982
1554.4	0.0001096
1552.5	0.0001331
1550.6	0.0001508
1548.6	0.0001512
1546.7	0.0001412
1544.8	0.0001382
1542.9	0.0001496
1540.9	0.0001625
1539.0	0.0001653
1537.1	0.0001594
1535.1	0.0001465
1533.2	0.0001285
1531.3	0.0001108
1529.4	0.0000928
1527.4	0.0000667
1525.5	0.0000335
1523.6	0.0000053
1521.6	-0.0000041
1519.7	0.0000172
1517.8	0.0000625
1515.9	0.0001139
1513.9	0.0001749
1512.0	0.0002513
1510.1	0.0003189
1508.1	0.0003444
1506.2	0.0003282
1504.3	0.0002962
1502.4	0.0002600
1500.4	0.0002157
1498.5	0.0001638
1496.6	0.0001143
1494.6	0.0000786
1492.7	0.0000545
1490.8	0.0000289
1488.9	0.0000043
1486.9	-0.0000090
1485.0	-0.0000096
1483.1	0.0000032
1481.1	0.0000274
1479.2	0.0000513
1477.3	0.0000751
1475.4	0.0001016
1473.4	0.0001185
1471.5	0.0001202
1469.6	0.0001169
1467.6	0.0001155
1465.7	0.0001201
1463.8	0.0001406
1461.9	0.0001768
1459.9	0.0002108
1458.0	0.0002276
1456.1	0.0002354
1454.1	0.0002473
1452.2	0.0002676
1450.3	0.0003071
1448.4	0.0003606
1446.4	0.0003938
1444.5	0.0003927
1442.6	0.0003843
1440.6	0.0003969
1438.7	0.0004273
1436.8	0.0004497
1434.9	0.0004540
1432.9	0.0004508
1431.0	0.0004472
1429.1	0.0004465
1427.1	0.0004586
1425.2	0.0004823
1423.3	0.0004968
1421.4	0.0004967
1419.4	0.0005042
1417.5	0.0005280
1415.6	0.0005586
1413.6	0.0005972
1411.7	0.0006456
1409.8	0.0006849
1407.9	0.0006817
1405.9	0.0006204
1404.0	0.0005295
1402.1	0.0004507
1400.1	0.0003904
1398.2	0.0003269
1396.3	0.0002508
1394.4	0.0001820
1392.4	0.0001426
1390.5	0.0001319
1388.6	0.0001401
1386.6	0.0001596
1384.7	0.0001689
1382.8	0.0001516
1380.9	0.0001279
1378.9	0.0001203
1377.0	0.0001218
1375.1	0.0001282
1373.1	0.0001445
1371.2	0.0001574
1369.3	0.0001545
1367.4	0.0001492
1365.4	0.0001559
1363.5	0.0001680
1361.6	0.0001721
1359.6	0.0001576
1357.7	0.0001273
1355.8	0.0000956
1353.9	0.0000653
1351.9	0.0000297
1350.0	-0.0000013
1348.1	-0.0000102
1346.1	-0.0000008
1344.2	0.0000062
1342.3	0.0000024
1340.4	-0.0000050
1338.4	-0.0000103
1336.5	-0.0000110
1334.6	-0.0000027
1332.6	0.0000094
1330.7	0.0000135
1328.8	0.0000136
1326.9	0.0000224
1324.9	0.0000396
1323.0	0.0000649
1321.1	0.0001038
1319.1	0.0001531
1317.2	0.0002003
1315.3	0.0002457
1313.4	0.0003108
1311.4	0.0003959
1309.5	0.0004627
1307.6	0.0004934
1305.6	0.0005033
1303.7	0.0004854
1301.8	0.0004252
1299.9	0.0003462
1297.9	0.0002821
1296.0	0.0002459
1294.1	0.0002328
1292.1	0.0002294
1290.2	0.0002230
1288.3	0.0002179
1286.4	0.0002288
1284.4	0.0002424
1282.5	0.0002367
1280.6	0.0002168
1278.6	0.0001988
1276.7	0.0001915
1274.8	0.0001912
1272.9	0.0001889
1270.9	0.0001854
1269.0	0.0001881
1267.1	0.0001962
1265.1	0.0002010
1263.2	0.0001967
1261.3	0.0001907
1259.4	0.0001944
1257.4	0.0002009
1255.5	0.0001941
1253.6	0.0001659
1251.6	0.0001259
1249.7	0.0001025
1247.8	0.0001067
1245.9	0.0001158
1243.9	0.0001130
1242.0	0.0001138
1240.1	0.0001239
1238.1	0.0001277
1236.2	0.0001316
1234.3	0.0001479
1232.4	0.0001559
1230.4	0.0001295
1228.5	0.0000820
1226.6	0.0000478
1224.6	0.0000272
1222.7	0.0000093
1220.8	0.0000082
1218.9	0.0000303
1216.9	0.0000568
1215.0	0.0000708
1213.1	0.0000660
1211.1	0.0000497
1209.2	0.0000384
1207.3	0.0000319
1205.4	0.0000156
1203.4	-0.0000047
1201.5	-0.0000081
1199.6	0.0000036
1197.6	-0.0000122
1195.7	-0.0000227
1193.8	-0.0000092
1191.9	0.0000122
1189.9	0.0000316
1188.0	0.0000385
1186.1	0.0000221
1184.1	0.0000028
1182.2	0.0000034
1180.3	0.0000141
1178.4	0.0000155
1176.4	-0.0000021
1174.5	-0.0000276
1172.6	-0.0000196
1170.6	0.0000315
1168.7	0.0000654
1166.8	0.0000462
1164.9	0.0000154
1162.9	0.0000056
1161.0	-0.0000057
1159.1	-0.0000285
1157.1	-0.0000308
1155.2	-0.0000063
1153.3	0.0000084
1151.4	-0.0000021
1149.4	-0.0000133
1147.5	-0.0000116
1145.6	-0.0000169
1143.6	-0.0000265
1141.7	-0.0000158
1139.8	-0.0000016
1137.9	-0.0000091
1135.9	-0.0000164
1134.0	0.0000056
1132.1	0.0000412
1130.1	0.0000408
1128.2	0.0000046
1126.3	-0.0000165
1124.4	-0.0000165
1122.4	-0.0000101
1120.5	0.0000119
1118.6	0.0000322
1116.6	0.0000341
1114.7	0.0000366
1112.8	0.0000414
1110.9	0.0000360
1108.9	0.0000202
1107.0	-0.0000018
1105.1	-0.0000118
1103.1	0.0000013
1101.2	0.0000257
1099.3	0.0000372
1097.4	0.0000229
1095.4	0.0000167
1093.5	0.0000275
1091.6	0.0000129
1089.6	-0.0000163
1087.7	-0.0000174
1085.8	0.0000141
1083.9	0.0000524
1081.9	0.0000567
1080.0	0.0000308
1078.1	0.0000230
1076.1	0.0000357
1074.2	0.0000307
1072.3	0.0000045
1070.4	-0.0000119
1068.4	0.0000031
1066.5	0.0000413
1064.6	0.0000591
1062.6	0.0000473
1060.7	0.0000586
1058.8	0.0001109
1056.9	0.0001865
1054.9	0.0002681
1053.0	0.0003194
1051.1	0.0003302
1049.1	0.0003128
1047.2	0.0002659
1045.3	0.0002127
1043.4	0.0001731
1041.4	0.0001314
1039.5	0.0000953
1037.6	0.0000734
1035.6	0.0000462
1033.7	0.0000155
1031.8	0.0000001
1029.9	0.0000200
1027.9	0.0000761
1026.0	0.0001263
1024.1	0.0001364
1022.1	0.0001241
1020.2	0.0001150
1018.3	0.0001129
1016.4	0.0001256
1014.4	0.0001472
1012.5	0.0001422
1010.6	0.0001038
1008.6	0.0000609
1006.7	0.0000265
1004.8	0.0000018
1002.9	-0.0000095
1000.9	-0.0000136
999.0	-0.0000031
997.1	0.0000253
995.1	0.0000380
993.2	0.0000285
991.3	0.0000366
989.4	0.0000826
987.4	0.0001277
985.5	0.0001391
983.6	0.0001527
981.6	0.0001899
979.7	0.0002183
977.8	0.0002282
975.9	0.0002616
973.9	0.0003313
972.0	0.0003917
970.1	0.0004310
968.1	0.0004728
966.2	0.0005019
964.3	0.0004860
962.4	0.0004467
960.4	0.0004427
958.5	0.0004617
956.6	0.0004407
954.6	0.0003986
952.7	0.0003818
950.8	0.0003592
948.9	0.0003152
946.9	0.0002786
945.0	0.0002526
943.1	0.0002322
941.1	0.0002162
939.2	0.0001887
937.3	0.0001351
935.4	0.0000892
933.4	0.0000901
931.5	0.0001110
929.6	0.0001120
927.6	0.0000841
925.7	0.0000399
923.8	0.0000056
921.9	-0.0000071
919.9	-0.0000004
918.0	0.0000199
916.1	0.0000263
914.1	0.0000015
912.2	-0.0000121
910.3	0.0000177
908.4	0.0000587
906.4	0.0000723
904.5	0.0000453
902.6	-0.0000130
900.6	-0.0000491
898.7	-0.0000185
896.8	0.0000278
894.9	0.0000387
892.9	0.0000358
891.0	0.0000273
889.1	0.0000174
887.1	0.0000216
885.2	0.0000291
883.3	0.0000419
881.4	0.0000796
879.4	0.0000561
877.5	-0.0001251
875.6	-0.0002745
873.6	-0.0001804
871.7	-0.0000140
869.8	0.0000196
867.9	0.0000094
865.9	0.0000393
864.0	0.0000451
862.1	0.0000288
860.1	0.0000115
858.2	-0.0000188
856.3	0.0000024
854.4	0.0000672
852.4	0.0000932
850.5	0.0000763
848.6	0.0000308
