3997.9	0.0001210
3996.0	0.0000905
3994.1	0.0000766
3992.1	0.0000715
3990.2	0.0000495
3988.3	0.0000270
3986.3	0.0000299
3984.4	0.0000390
3982.5	0.0000356
3980.6	0.0000245
3978.6	0.0000154
3976.7	0.0000145
3974.8	0.0000170
3972.8	0.0000160
3970.9	0.0000137
3969.0	0.0000117
3967.1	0.0000087
3965.1	0.0000130
3963.2	0.0000318
3961.3	0.0000485
3959.3	0.0000424
3957.4	0.0000172
3955.5	-0.0000004
3953.6	0.0000044
3951.6	0.0000196
3949.7	0.0000393
3947.8	0.0000496
3945.8	0.0000365
3943.9	0.0000265
3942.0	0.0000276
3940.1	0.0000372
3938.1	0.0000478
3936.2	0.0000300
3934.3	0.0000060
3932.3	-0.0000027
3930.4	-0.0000184
3928.5	-0.0000360
3926.6	-0.0000309
3924.6	-0.0000116
3922.7	-0.0000038
3920.8	0.0000016
3918.8	0.0000020
3916.9	-0.0000098
3915.0	-0.0000314
3913.1	-0.0000242
3911.1	-0.0000059
3909.2	-0.0000130
3907.3	-0.0000392
3905.3	-0.0000493
3903.4	-0.0000466
3901.5	-0.0000269
3899.6	0.0000053
3897.6	-0.0000090
3895.7	-0.0000437
3893.8	-0.0000395
3891.8	-0.0000071
3889.9	-0.0000200
3888.0	-0.0000097
3886.1	0.0000474
3884.1	0.0000224
3882.2	0.0000103
3880.3	0.0000371
3878.3	0.0000154
3876.4	0.0000072
3874.5	0.0000138
3872.6	0.0000166
3870.6	0.0000713
3868.7	0.0000515
3866.8	0.0000077
3864.8	0.0000047
3862.9	-0.0000296
3861.0	-0.0000431
3859.1	-0.0000523
3857.1	-0.0000500
3855.2	0.0000472
3853.3	0.0000867
3851.3	-0.0000145
3849.4	-0.0000637
3847.5	-0.0000562
3845.6	-0.0000269
3843.6	0.0000132
3841.7	0.0000170
3839.8	0.0000414
3837.8	0.0000770
3835.9	0.0000385
3834.0	0.0000221
3832.1	0.0000380
3830.1	0.0000282
3828.2	0.0000354
3826.3	0.0000497
3824.3	0.0000444
3822.4	0.0000960
3820.5	0.0000995
3818.6	0.0000721
3816.6	0.0001359
3814.7	0.0000999
3812.8	0.0000326
3810.8	0.0000391
3808.9	0.0000774
3807.0	0.0000984
3805.1	0.0000185
3803.1	0.0000346
3801.2	0.0000953
3799.3	0.0000391
3797.3	0.0000353
3795.4	0.0000435
3793.5	0.0000291
3791.6	0.0000457
3789.6	0.0000825
3787.7	0.0001186
3785.8	0.0001307
3783.8	0.0001032
3781.9	0.0000741
3780.0	0.0000774
3778.1	0.0000790
3776.1	0.0000976
3774.2	0.0001255
3772.3	0.0001425
3770.3	0.0001549
3768.4	0.0001257
3766.5	0.0001111
3764.6	0.0001056
3762.6	0.0000951
3760.7	0.0001175
3758.8	0.0001252
3756.8	0.0000930
3754.9	0.0000558
3753.0	0.0000886
3751.1	0.0001025
3749.1	0.0000382
3747.2	-0.0000088
3745.3	0.0001370
3743.3	0.0001577
3741.4	0.0000649
3739.5	0.0000597
3737.6	0.0000862
3735.6	0.0000907
3733.7	0.0000793
3731.8	0.0000830
3729.8	0.0000581
3727.9	0.0000787
3726.0	0.0000899
3724.1	0.0000589
3722.1	0.0000555
3720.2	0.0000700
3718.3	0.0000774
3716.3	0.0000549
3714.4	0.0000458
3712.5	0.0000692
3710.6	0.0000520
3708.6	0.0000391
3706.7	0.0000606
3704.8	0.0000906
3702.8	0.0001113
3700.9	0.0001005
3699.0	0.0000784
3697.1	0.0000753
3695.1	0.0000623
3693.2	0.0000511
3691.3	0.0000567
3689.3	0.0001032
3687.4	0.0000991
3685.5	0.0000561
3683.6	0.0000770
3681.6	0.0000892
3679.7	0.0000691
3677.8	0.0000871
3675.8	0.0001481
3673.9	0.0000862
3672.0	0.0000768
3670.1	0.0001203
3668.1	0.0000658
3666.2	0.0000348
3664.3	0.0000500
3662.3	0.0000643
3660.4	0.0000639
3658.5	0.0000701
3656.6	0.0000838
3654.6	0.0000340
3652.7	0.0000013
3650.8	0.0000324
3648.8	0.0000271
3646.9	-0.0000102
3645.0	-0.0000155
3643.1	0.0000218
3641.1	0.0000647
3639.2	0.0000871
3637.3	0.0000808
3635.3	0.0000560
3633.4	0.0000081
3631.5	-0.0000125
3629.6	0.0000377
3627.6	0.0000064
3625.7	-0.0000414
3623.8	-0.0000138
3621.8	0.0000248
3619.9	0.0000572
3618.0	0.0000478
3616.1	0.0000325
3614.1	0.0000451
3612.2	0.0000439
3610.3	0.0000441
3608.3	0.0000362
3606.4	-0.0000122
3604.5	-0.0000447
3602.6	-0.0000356
3600.6	-0.0000005
3598.7	0.0000245
3596.8	0.0000243
3594.8	0.0000157
3592.9	0.0000138
3591.0	0.0000203
3589.1	0.0000289
3587.1	0.0000080
3585.2	-0.0000145
3583.3	0.0000007
3581.3	0.0000142
3579.4	0.0000106
3577.5	0.0000161
3575.6	0.0000300
3573.6	0.0000369
3571.7	0.0000295
3569.8	0.0000192
3567.8	0.0000141
3565.9	-0.0000113
3564.0	-0.0000413
3562.1	-0.0000430
3560.1	-0.0000180
3558.2	0.0000097
3556.3	0.0000101
3554.3	-0.0000140
3552.4	-0.0000323
3550.5	-0.0000425
3548.6	-0.0000413
3546.6	-0.0000266
3544.7	-0.0000172
3542.8	-0.0000164
3540.8	-0.0000177
3538.9	-0.0000241
3537.0	-0.0000321
3535.1	-0.0000302
3533.1	-0.0000110
3531.2	0.0000143
3529.3	0.0000331
3527.3	0.0000376
3525.4	0.0000217
3523.5	-0.0000020
3521.6	-0.0000184
3519.6	-0.0000314
3517.7	-0.0000510
3515.8	-0.0000618
3513.8	-0.0000517
3511.9	-0.0000384
3510.0	-0.0000304
3508.1	-0.0000252
3506.1	-0.0000138
3504.2	0.0000088
3502.3	0.0000196
3500.3	0.0000023
3498.4	-0.0000161
3496.5	-0.0000110
3494.6	-0.0000092
3492.6	-0.0000324
3490.7	-0.0000559
3488.8	-0.0000541
3486.8	-0.0000381
3484.9	-0.0000317
3483.0	-0.0000351
3481.1	-0.0000340
3479.1	-0.0000169
3477.2	0.0000068
3475.3	0.0000189
3473.3	0.0000209
3471.4	0.0000282
3469.5	0.0000456
3467.6	0.0000545
3465.6	0.0000399
3463.7	0.0000240
3461.8	0.0000270
3459.8	0.0000322
3457.9	0.0000204
3456.0	-0.0000003
3454.1	-0.0000119
3452.1	-0.0000135
3450.2	-0.0000063
3448.3	0.0000222
3446.3	0.0000482
3444.4	0.0000288
3442.5	-0.0000195
3440.6	-0.0000405
3438.6	-0.0000239
3436.7	-0.0000178
3434.8	-0.0000347
3432.8	-0.0000458
3430.9	-0.0000446
3429.0	-0.0000427
3427.1	-0.0000455
3425.1	-0.0000455
3423.2	-0.0000293
3421.3	0.0000031
3419.3	0.0000320
3417.4	0.0000319
3415.5	0.0000041
3413.6	-0.0000337
3411.6	-0.0000717
3409.7	-0.0000838
3407.8	-0.0000504
3405.8	-0.0000020
3403.9	0.0000120
3402.0	-0.0000106
3400.1	-0.0000323
3398.1	-0.0000390
3396.2	-0.0000367
3394.3	-0.0000245
3392.3	-0.0000131
3390.4	0.0000003
3388.5	0.0000223
3386.6	0.0000322
3384.6	0.0000260
3382.7	0.0000207
3380.8	0.0000184
3378.8	0.0000120
3376.9	-0.0000018
3375.0	-0.0000194
3373.1	-0.0000258
3371.1	-0.0000120
3369.2	0.0000148
3367.3	0.0000382
3365.3	0.0000475
3363.4	0.0000505
3361.5	0.0000529
3359.6	0.0000437
3357.6	0.0000275
3355.7	0.0000257
3353.8	0.0000331
3351.8	0.0000278
3349.9	0.0000150
3348.0	0.0000147
3346.1	0.0000219
3344.1	0.0000249
3342.2	0.0000270
3340.3	0.0000274
3338.3	0.0000203
3336.4	0.0000148
3334.5	0.0000118
3332.6	-0.0000047
3330.6	-0.0000276
3328.7	-0.0000362
3326.8	-0.0000312
3324.8	-0.0000200
3322.9	-0.0000171
3321.0	-0.0000350
3319.1	-0.0000527
3317.1	-0.0000455
3315.2	-0.0000123
3313.3	0.0000292
3311.3	0.0000516
3309.4	0.0000507
3307.5	0.0000370
3305.6	0.0000137
3303.6	-0.0000031
3301.7	0.0000017
3299.8	0.0000084
3297.8	0.0000014
3295.9	-0.0000059
3294.0	-0.0000011
3292.1	0.0000143
3290.1	0.0000243
3288.2	0.0000149
3286.3	-0.0000034
3284.3	-0.0000131
3282.4	-0.0000083
3280.5	0.0000128
3278.6	0.0000495
3276.6	0.0000826
3274.7	0.0000862
3272.8	0.0000558
3270.8	0.0000098
3268.9	-0.0000178
3267.0	-0.0000077
3265.1	0.0000130
3263.1	0.0000216
3261.2	0.0000339
3259.3	0.0000548
3257.3	0.0000588
3255.4	0.0000293
3253.5	-0.0000036
3251.6	-0.0000068
3249.6	0.0000082
3247.7	0.0000188
3245.8	0.0000228
3243.8	0.0000300
3241.9	0.0000466
3240.0	0.0000548
3238.1	0.0000395
3236.1	0.0000287
3234.2	0.0000379
3232.3	0.0000386
3230.3	0.0000267
3228.4	0.0000237
3226.5	0.0000397
3224.6	0.0000674
3222.6	0.0000818
3220.7	0.0000809
3218.8	0.0000881
3216.8	0.0000990
3214.9	0.0000926
3213.0	0.0000760
3211.1	0.0000706
3209.1	0.0000635
3207.2	0.0000395
3205.3	0.0000232
3203.3	0.0000319
3201.4	0.0000478
3199.5	0.0000541
3197.6	0.0000571
3195.6	0.0000728
3193.7	0.0000989
3191.8	0.0001113
3189.8	0.0000986
3187.9	0.0000760
3186.0	0.0000618
3184.1	0.0000594
3182.1	0.0000623
3180.2	0.0000621
3178.3	0.0000529
3176.3	0.0000410
3174.4	0.0000403
3172.5	0.0000486
3170.6	0.0000432
3168.6	0.0000178
3166.7	0.0000062
3164.8	0.0000188
3162.8	0.0000237
3160.9	0.0000150
3159.0	0.0000156
3157.1	0.0000380
3155.1	0.0000652
3153.2	0.0000670
3151.3	0.0000473
3149.3	0.0000305
3147.4	0.0000238
3145.5	0.0000222
3143.6	0.0000233
3141.6	0.0000285
3139.7	0.0000345
3137.8	0.0000349
3135.8	0.0000271
3133.9	0.0000184
3132.0	0.0000198
3130.1	0.0000320
3128.1	0.0000376
3126.2	0.0000269
3124.3	0.0000184
3122.3	0.0000210
3120.4	0.0000271
3118.5	0.0000484
3116.6	0.0000799
3114.6	0.0000892
3112.7	0.0000751
3110.8	0.0000605
3108.8	0.0000561
3106.9	0.0000695
3105.0	0.0000934
3103.1	0.0001061
3101.1	0.0001026
3099.2	0.0000897
3097.3	0.0000742
3095.3	0.0000689
3093.4	0.0000791
3091.5	0.0000873
3089.6	0.0000806
3087.6	0.0000736
3085.7	0.0000770
3083.8	0.0000857
3081.8	0.0000945
3079.9	0.0000958
3078.0	0.0000909
3076.1	0.0000861
3074.1	0.0000772
3072.2	0.0000631
3070.3	0.0000555
3068.3	0.0000594
3066.4	0.0000598
3064.5	0.0000488
3062.6	0.0000476
3060.6	0.0000657
3058.7	0.0000835
3056.8	0.0000902
3054.8	0.0000951
3052.9	0.0001120
3051.0	0.0001435
3049.1	0.0001725
3047.1	0.0001840
3045.2	0.0001862
3043.3	0.0001928
3041.3	0.0002105
3039.4	0.0002400
3037.5	0.0002689
3035.6	0.0002803
3033.6	0.0002726
3031.7	0.0002546
3029.8	0.0002381
3027.8	0.0002354
3025.9	0.0002467
3024.0	0.0002587
3022.1	0.0002632
3020.1	0.0002655
3018.2	0.0002676
3016.3	0.0002591
3014.3	0.0002394
3012.4	0.0002286
3010.5	0.0002364
3008.6	0.0002455
3006.6	0.0002393
3004.7	0.0002225
3002.8	0.0002172
3000.8	0.0002397
2998.9	0.0002797
2997.0	0.0003035
2995.1	0.0002934
2993.1	0.0002718
2991.2	0.0002750
2989.3	0.0002837
2987.3	0.0002708
2985.4	0.0002579
2983.5	0.0002549
2981.6	0.0002415
2979.6	0.0002124
2977.7	0.0001903
2975.8	0.0001809
2973.8	0.0001630
2971.9	0.0001431
2970.0	0.0001420
2968.1	0.0001560
2966.1	0.0001738
2964.2	0.0001759
2962.3	0.0001530
2960.3	0.0001275
2958.4	0.0001162
2956.5	0.0001153
2954.6	0.0001249
2952.6	0.0001465
2950.7	0.0001778
2948.8	0.0002162
2946.8	0.0002511
2944.9	0.0002729
2943.0	0.0002814
2941.1	0.0002814
2939.1	0.0002866
2937.2	0.0002958
2935.3	0.0002969
2933.3	0.0002994
2931.4	0.0003104
2929.5	0.0003317
2927.6	0.0003613
2925.6	0.0003753
2923.7	0.0003623
2921.8	0.0003411
2919.8	0.0003179
2917.9	0.0002857
2916.0	0.0002534
2914.1	0.0002313
2912.1	0.0002162
2910.2	0.0002038
2908.3	0.0001891
2906.3	0.0001723
2904.4	0.0001568
2902.5	0.0001414
2900.6	0.0001266
2898.6	0.0001152
2896.7	0.0001044
2894.8	0.0000908
2892.8	0.0000720
2890.9	0.0000418
2889.0	0.0000095
2887.1	-0.0000088
2885.1	-0.0000234
2883.2	-0.0000378
2881.3	-0.0000320
2879.3	-0.0000093
2877.4	0.0000003
2875.5	-0.0000133
2873.6	-0.0000290
2871.6	-0.0000306
2869.7	-0.0000237
2867.8	-0.0000123
2865.8	0.0000026
2863.9	0.0000110
2862.0	0.0000192
2860.1	0.0000350
2858.1	0.0000457
2856.2	0.0000485
2854.3	0.0000456
2852.3	0.0000299
2850.4	0.0000088
2848.5	-0.0000035
2846.6	-0.0000087
2844.6	-0.0000088
2842.7	-0.0000052
2840.8	-0.0000109
2838.8	-0.0000251
2836.9	-0.0000286
2835.0	-0.0000234
2833.1	-0.0000317
2831.1	-0.0000552
2829.2	-0.0000679
2827.3	-0.0000620
2825.3	-0.0000519
2823.4	-0.0000339
2821.5	-0.0000101
2819.6	0.0000051
2817.6	0.0000215
2815.7	0.0000439
2813.8	0.0000588
2811.8	0.0000687
2809.9	0.0000802
2808.0	0.0000866
2806.1	0.0000862
2804.1	0.0000855
2802.2	0.0000891
2800.3	0.0000905
2798.3	0.0000846
2796.4	0.0000776
2794.5	0.0000745
2792.6	0.0000717
2790.6	0.0000685
2788.7	0.0000700
2786.8	0.0000754
2784.8	0.0000762
2782.9	0.0000720
2781.0	0.0000696
2779.1	0.0000687
2777.1	0.0000620
2775.2	0.0000471
2773.3	0.0000311
2771.3	0.0000188
2769.4	0.0000083
2767.5	0.0000082
2765.6	0.0000225
2763.6	0.0000355
2761.7	0.0000444
2759.8	0.0000550
2757.8	0.0000629
2755.9	0.0000689
2754.0	0.0000710
2752.1	0.0000657
2750.1	0.0000635
2748.2	0.0000737
2746.3	0.0000946
2744.3	0.0001166
2742.4	0.0001252
2740.5	0.0001191
2738.6	0.0001164
2736.6	0.0001226
2734.7	0.0001277
2732.8	0.0001337
2730.8	0.0001476
2728.9	0.0001629
2727.0	0.0001640
2725.1	0.0001556
2723.1	0.0001568
2721.2	0.0001638
2719.3	0.0001647
2717.3	0.0001628
2715.4	0.0001683
2713.5	0.0001853
2711.6	0.0002037
2709.6	0.0002224
2707.7	0.0002472
2705.8	0.0002606
2703.8	0.0002598
2701.9	0.0002679
2700.0	0.0002811
2698.1	0.0002872
2696.1	0.0002980
2694.2	0.0003155
2692.3	0.0003270
2690.3	0.0003278
2688.4	0.0003135
2686.5	0.0002882
2684.6	0.0002639
2682.6	0.0002382
2680.7	0.0002122
2678.8	0.0001955
2676.8	0.0001890
2674.9	0.0001967
2673.0	0.0002129
2671.1	0.0002131
2669.1	0.0001919
2667.2	0.0001669
2665.3	0.0001535
2663.3	0.0001525
2661.4	0.0001522
2659.5	0.0001545
2657.6	0.0001737
2655.6	0.0001983
2653.7	0.0002084
2651.8	0.0002182
2649.8	0.0002523
2647.9	0.0003046
2646.0	0.0003505
2644.1	0.0003756
2642.1	0.0003810
2640.2	0.0003732
2638.3	0.0003584
2636.3	0.0003428
2634.4	0.0003279
2632.5	0.0003031
2630.6	0.0002619
2628.6	0.0002280
2626.7	0.0002199
2624.8	0.0002127
2622.8	0.0001836
2620.9	0.0001504
2619.0	0.0001377
2617.1	0.0001421
2615.1	0.0001391
2613.2	0.0001212
2611.3	0.0001123
2609.3	0.0001175
2607.4	0.0001202
2605.5	0.0001194
2603.6	0.0001135
2601.6	0.0001059
2599.7	0.0001054
2597.8	0.0001046
2595.8	0.0001088
2593.9	0.0001286
2592.0	0.0001485
2590.1	0.0001625
2588.1	0.0001812
2586.2	0.0002030
2584.3	0.0002213
2582.3	0.0002359
2580.4	0.0002470
2578.5	0.0002531
2576.6	0.0002632
2574.6	0.0002817
2572.7	0.0002840
2570.8	0.0002602
2568.8	0.0002352
2566.9	0.0002166
2565.0	0.0001977
2563.1	0.0001812
2561.1	0.0001639
2559.2	0.0001451
2557.3	0.0001373
2555.3	0.0001390
2553.4	0.0001347
2551.5	0.0001236
2549.6	0.0001153
2547.6	0.0001158
2545.7	0.0001204
2543.8	0.0001100
2541.8	0.0000800
2539.9	0.0000592
2538.0	0.0000721
2536.1	0.0001008
2534.1	0.0001045
2532.2	0.0000778
2530.3	0.0000603
2528.3	0.0000632
2526.4	0.0000629
2524.5	0.0000623
2522.6	0.0000707
2520.6	0.0000790
2518.7	0.0000797
2516.8	0.0000660
2514.8	0.0000379
2512.9	0.0000082
2511.0	-0.0000041
2509.1	0.0000099
2507.1	0.0000218
2505.2	0.0000121
2503.3	0.0000078
2501.3	0.0000208
2499.4	0.0000300
2497.5	0.0000294
2495.6	0.0000291
2493.6	0.0000331
2491.7	0.0000350
2489.8	0.0000365
2487.8	0.0000404
2485.9	0.0000379
2484.0	0.0000307
2482.1	0.0000251
2480.1	0.0000217
2478.2	0.0000217
2476.3	0.0000149
2474.3	-0.0000027
2472.4	-0.0000180
2470.5	-0.0000177
2468.6	-0.0000019
2466.6	0.0000133
2464.7	0.0000211
2462.8	0.0000252
2460.8	0.0000205
2458.9	0.0000078
2457.0	-0.0000044
2455.1	-0.0000116
2453.1	-0.0000079
2451.2	0.0000039
2449.3	0.0000125
2447.3	0.0000169
2445.4	0.0000149
2443.5	0.0000036
2441.6	-0.0000043
2439.6	-0.0000041
2437.7	-0.0000040
2435.8	0.0000001
2433.8	0.0000071
2431.9	0.0000060
2430.0	0.0000001
2428.1	-0.0000067
2426.1	-0.0000136
2424.2	-0.0000136
2422.3	-0.0000096
2420.3	-0.0000124
2418.4	-0.0000221
2416.5	-0.0000284
2414.6	-0.0000281
2412.6	-0.0000219
2410.7	-0.0000102
2408.8	-0.0000021
2406.8	-0.0000033
2404.9	-0.0000101
2403.0	-0.0000161
2401.1	-0.0000224
2399.1	-0.0000368
2397.2	-0.0000508
2395.3	-0.0000539
2393.3	-0.0000508
2391.4	-0.0000421
2389.5	-0.0000277
2387.6	-0.0000193
2385.6	-0.0000252
2383.7	-0.0000365
2381.8	-0.0000421
2379.8	-0.0000403
2377.9	-0.0000322
2376.0	-0.0000197
2374.1	-0.0000111
2372.1	-0.0000094
2370.2	-0.0000145
2368.3	-0.0000319
2366.3	-0.0000541
2364.4	-0.0000651
2362.5	-0.0000693
2360.6	-0.0000710
2358.6	-0.0000633
2356.7	-0.0000480
2354.8	-0.0000382
2352.8	-0.0000400
2350.9	-0.0000437
2349.0	-0.0000384
2347.1	-0.0000253
2345.1	-0.0000097
2343.2	-0.0000001
2341.3	-0.0000045
2339.3	-0.0000174
2337.4	-0.0000273
2335.5	-0.0000326
2333.6	-0.0000404
2331.6	-0.0000478
2329.7	-0.0000430
2327.8	-0.0000328
2325.8	-0.0000284
2323.9	-0.0000241
2322.0	-0.0000215
2320.1	-0.0000233
2318.1	-0.0000216
2316.2	-0.0000171
2314.3	-0.0000176
2312.3	-0.0000259
2310.4	-0.0000381
2308.5	-0.0000426
2306.6	-0.0000355
2304.6	-0.0000231
2302.7	-0.0000098
2300.8	-0.0000094
2298.8	-0.0000305
2296.9	-0.0000424
2295.0	-0.0000216
2293.1	0.0000080
2291.1	0.0000196
2289.2	0.0000105
2287.3	-0.0000131
2285.3	-0.0000329
2283.4	-0.0000302
2281.5	-0.0000140
2279.6	-0.0000075
2277.6	-0.0000150
2275.7	-0.0000250
2273.8	-0.0000310
2271.8	-0.0000369
2269.9	-0.0000400
2268.0	-0.0000296
2266.1	-0.0000083
2264.1	0.0000070
2262.2	0.0000087
2260.3	0.0000116
2258.3	0.0000278
2256.4	0.0000405
2254.5	0.0000371
2252.6	0.0000249
2250.6	0.0000077
2248.7	-0.0000055
2246.8	-0.0000030
2244.8	0.0000071
2242.9	0.0000118
2241.0	0.0000099
2239.1	0.0000102
2237.1	0.0000134
2235.2	0.0000035
2233.3	-0.0000139
2231.3	-0.0000191
2229.4	-0.0000234
2227.5	-0.0000334
2225.6	-0.0000320
2223.6	-0.0000259
2221.7	-0.0000258
2219.8	-0.0000285
2217.8	-0.0000285
2215.9	-0.0000129
2214.0	0.0000093
2212.1	0.0000172
2210.1	0.0000187
2208.2	0.0000152
2206.3	-0.0000019
2204.3	-0.0000164
2202.4	-0.0000165
2200.5	-0.0000043
2198.6	0.0000184
2196.6	0.0000344
2194.7	0.0000274
2192.8	0.0000096
2190.8	-0.0000067
2188.9	-0.0000165
2187.0	-0.0000125
2185.1	-0.0000032
2183.1	0.0000057
2181.2	0.0000196
2179.3	0.0000306
2177.3	0.0000221
2175.4	-0.0000032
2173.5	-0.0000218
2171.6	-0.0000228
2169.6	-0.0000157
2167.7	-0.0000112
2165.8	-0.0000131
2163.8	-0.0000138
2161.9	-0.0000069
2160.0	0.0000030
2158.1	0.0000043
2156.1	-0.0000016
2154.2	0.0000003
2152.3	0.0000079
2150.3	0.0000031
2148.4	-0.0000137
2146.5	-0.0000177
2144.6	-0.0000072
2142.6	-0.0000032
2140.7	-0.0000106
2138.8	-0.0000171
2136.8	-0.0000103
2134.9	0.0000107
2133.0	0.0000335
2131.1	0.0000387
2129.1	0.0000158
2127.2	-0.0000102
2125.3	-0.0000109
2123.3	0.0000003
2121.4	0.0000083
2119.5	0.0000179
2117.6	0.0000208
2115.6	0.0000028
2113.7	-0.0000259
2111.8	-0.0000428
2109.8	-0.0000401
2107.9	-0.0000239
2106.0	-0.0000080
2104.1	-0.0000051
2102.1	-0.0000070
2100.2	-0.0000040
2098.3	-0.0000011
2096.3	-0.0000080
2094.4	-0.0000107
2092.5	-0.0000254
2090.6	-0.0000825
2088.6	-0.0001931
2086.7	-0.0003268
2084.8	-0.0004179
2082.8	-0.0004266
2080.9	-0.0003788
2079.0	-0.0003220
2077.1	-0.0002798
2075.1	-0.0002519
2073.2	-0.0002266
2071.3	-0.0001974
2069.3	-0.0001624
2067.4	-0.0001147
2065.5	-0.0000544
2063.6	0.0000042
2061.6	0.0000545
2059.7	0.0000976
2057.8	0.0001295
2055.8	0.0001520
2053.9	0.0001728
2052.0	0.0001847
2050.1	0.0001776
2048.1	0.0001628
2046.2	0.0001529
2044.3	0.0001416
2042.3	0.0001259
2040.4	0.0001122
2038.5	0.0001008
2036.6	0.0000883
2034.6	0.0000755
2032.7	0.0000645
2030.8	0.0000567
2028.8	0.0000551
2026.9	0.0000551
2025.0	0.0000519
2023.1	0.0000485
2021.1	0.0000384
2019.2	0.0000227
2017.3	0.0000150
2015.3	0.0000135
2013.4	0.0000129
2011.5	0.0000090
2009.6	0.0000011
2007.6	0.0000002
2005.7	0.0000071
2003.8	0.0000069
2001.8	-0.0000064
1999.9	-0.0000191
1998.0	-0.0000216
1996.1	-0.0000180
1994.1	-0.0000072
1992.2	0.0000039
1990.3	-0.0000065
1988.3	-0.0000237
1986.4	-0.0000320
1984.5	-0.0000352
1982.6	-0.0000375
1980.6	-0.0000399
1978.7	-0.0000379
1976.8	-0.0000297
1974.8	-0.0000266
1972.9	-0.0000365
1971.0	-0.0000495
1969.1	-0.0000531
1967.1	-0.0000500
1965.2	-0.0000480
1963.3	-0.0000386
1961.4	-0.0000189
1959.4	-0.0000038
1957.5	-0.0000098
1955.6	-0.0000275
1953.6	-0.0000387
1951.7	-0.0000461
1949.8	-0.0000531
1947.9	-0.0000489
1945.9	-0.0000339
1944.0	-0.0000209
1942.1	-0.0000249
1940.1	-0.0000411
1938.2	-0.0000454
1936.3	-0.0000404
1934.4	-0.0000317
1932.4	-0.0000199
1930.5	-0.0000090
1928.6	-0.0000094
1926.6	-0.0000212
1924.7	-0.0000271
1922.8	-0.0000332
1920.9	-0.0000499
1918.9	-0.0000396
1917.0	-0.0000255
1915.1	-0.0000249
1913.1	-0.0000157
1911.2	0.0000003
1909.3	0.0000126
1907.4	0.0000055
1905.4	-0.0000068
1903.5	-0.0000064
1901.6	-0.0000008
1899.6	-0.0000021
1897.7	-0.0000065
1895.8	-0.0000088
1893.9	-0.0000204
1891.9	-0.0000322
1890.0	-0.0000320
1888.1	-0.0000391
1886.1	-0.0000386
1884.2	-0.0000234
1882.3	-0.0000106
1880.4	-0.0000068
1878.4	-0.0000153
1876.5	-0.0000259
1874.6	-0.0000324
1872.6	-0.0000364
1870.7	-0.0000179
1868.8	0.0000095
1866.9	0.0000133
1864.9	0.0000150
1863.0	0.0000198
1861.1	0.0000238
1859.1	0.0000276
1857.2	0.0000376
1855.3	0.0000580
1853.4	0.0000811
1851.4	0.0000975
1849.5	0.0001046
1847.6	0.0001035
1845.6	0.0001324
1843.7	0.0001484
1841.8	0.0001135
1839.9	0.0001246
1837.9	0.0001555
1836.0	0.0001604
1834.1	0.0001463
1832.1	0.0001437
1830.2	0.0001575
1828.3	0.0001405
1826.4	0.0001454
1824.4	0.0001742
1822.5	0.0001765
1820.6	0.0001599
1818.6	0.0001397
1816.7	0.0001330
1814.8	0.0001358
1812.9	0.0001483
1810.9	0.0001555
1809.0	0.0001433
1807.1	0.0001318
1805.1	0.0001337
1803.2	0.0001582
1801.3	0.0002007
1799.4	0.0002377
1797.4	0.0002716
1795.5	0.0003164
1793.6	0.0003916
1791.6	0.0004308
1789.7	0.0004005
1787.8	0.0003696
1785.9	0.0003489
1783.9	0.0003058
1782.0	0.0002670
1780.1	0.0002546
1778.1	0.0002392
1776.2	0.0002284
1774.3	0.0002572
1772.4	0.0002909
1770.4	0.0002821
1768.5	0.0003363
1766.6	0.0003972
1764.6	0.0004682
1762.7	0.0005993
1760.8	0.0006906
1758.9	0.0007390
1756.9	0.0007781
1755.0	0.0007508
1753.1	0.0007368
1751.1	0.0007441
1749.2	0.0007286
1747.3	0.0007687
1745.4	0.0008717
1743.4	0.0010508
1741.5	0.0014367
1739.6	0.0021681
1737.6	0.0032704
1735.7	0.0047507
1733.8	0.0061674
1731.9	0.0069835
1729.9	0.0072626
1728.0	0.0071025
1726.1	0.0066364
1724.1	0.0060510
1722.2	0.0054203
1720.3	0.0048194
1718.4	0.0043053
1716.4	0.0037528
1714.5	0.0032212
1712.6	0.0028016
1710.6	0.0024419
1708.7	0.0021120
1706.8	0.0018218
1704.9	0.0015319
1702.9	0.0012876
1701.0	0.0011873
1699.1	0.0009919
1697.1	0.0008664
1695.2	0.0008209
1693.3	0.0006634
1691.4	0.0005955
1689.4	0.0005213
1687.5	0.0004232
1685.6	0.0004624
1683.6	0.0004441
1681.7	0.0003375
1679.8	0.0003234
1677.9	0.0003318
1675.9	0.0003705
1674.0	0.0003542
1672.1	0.0003388
1670.1	0.0003909
1668.2	0.0003882
1666.3	0.0003502
1664.4	0.0003678
1662.4	0.0003721
1660.5	0.0003403
1658.6	0.0003175
1656.6	0.0002742
1654.7	0.0003416
1652.8	0.0004065
1650.9	0.0002590
1648.9	0.0002495
1647.0	0.0003554
1645.1	0.0003225
1643.1	0.0002406
1641.2	0.0002020
1639.3	0.0001490
1637.4	0.0001502
1635.4	0.0001613
1633.5	0.0000639
1631.6	0.0000231
1629.6	0.0000641
1627.7	0.0000901
1625.8	0.0000906
1623.9	0.0001125
1621.9	0.0000868
1620.0	0.0000395
1618.1	0.0000918
1616.1	0.0001114
1614.2	0.0000476
1612.3	0.0000689
1610.4	0.0001146
1608.4	0.0001275
1606.5	0.0001162
1604.6	0.0001024
1602.6	0.0001037
1600.7	0.0001110
1598.8	0.0001104
1596.9	0.0001087
1594.9	0.0001062
1593.0	0.0000928
1591.1	0.0000832
1589.1	0.0000857
1587.2	0.0000844
1585.3	0.0000735
1583.4	0.0000656
1581.4	0.0000495
1579.5	0.0000143
1577.6	0.0000596
1575.6	0.0000834
1573.7	-0.0000074
1571.8	-0.0000058
1569.9	0.0000460
1567.9	0.0000284
1566.0	0.0000198
1564.1	-0.0000059
1562.1	-0.0000393
1560.2	0.0000388
1558.3	0.0000303
1556.4	-0.0000604
1554.4	-0.0000127
1552.5	0.0000417
1550.6	0.0000739
1548.6	0.0000705
1546.7	0.0000509
1544.8	0.0000454
1542.9	0.0000445
1540.9	0.0001030
1539.0	0.0001107
1537.1	0.0000170
1535.1	0.0000383
1533.2	0.0000972
1531.3	0.0000796
1529.4	0.0000791
1527.4	0.0000862
1525.5	0.0000517
1523.6	0.0000174
1521.6	0.0000284
1519.7	-0.0000174
1517.8	-0.0000108
1515.9	0.0000425
1513.9	0.0000869
1512.0	0.0001447
1510.1	0.0001672
1508.1	0.0002422
1506.2	0.0002915
1504.3	0.0001835
1502.4	0.0001180
1500.4	0.0001114
1498.5	0.0000897
1496.6	0.0000665
1494.6	0.0000088
1492.7	-0.0000154
1490.8	0.0000104
1488.9	-0.0000098
1486.9	-0.0000374
1485.0	-0.0000398
1483.1	-0.0000110
1481.1	0.0000294
1479.2	0.0000521
1477.3	0.0000708
1475.4	0.0000975
1473.4	0.0001543
1471.5	0.0001655
1469.6	0.0001443
1467.6	0.0001778
1465.7	0.0002417
1463.8	0.0002671
1461.9	0.0002731
1459.9	0.0003324
1458.0	0.0004712
1456.1	0.0005313
1454.1	0.0005236
1452.2	0.0006217
1450.3	0.0007610
1448.4	0.0008971
1446.4	0.0009932
1444.5	0.0010599
1442.6	0.0011102
1440.6	0.0011266
1438.7	0.0011688
1436.8	0.0012168
1434.9	0.0011466
1432.9	0.0010708
1431.0	0.0010352
1429.1	0.0009958
1427.1	0.0009995
1425.2	0.0010699
1423.3	0.0011142
1421.4	0.0011424
1419.4	0.0011812
1417.5	0.0011312
1415.6	0.0010709
1413.6	0.0010315
1411.7	0.0009824
1409.8	0.0009329
1407.9	0.0008893
1405.9	0.0008437
1404.0	0.0007681
1402.1	0.0006831
1400.1	0.0006297
1398.2	0.0005561
1396.3	0.0004716
1394.4	0.0004050
1392.4	0.0003220
1390.5	0.0002627
1388.6	0.0002452
1386.6	0.0002224
1384.7	0.0001940
1382.8	0.0001917
1380.9	0.0001893
1378.9	0.0001941
1377.0	0.0002289
1375.1	0.0003133
1373.1	0.0004108
1371.2	0.0004873
1369.3	0.0005594
1367.4	0.0006244
1365.4	0.0006809
1363.5	0.0007106
1361.6	0.0006605
1359.6	0.0005310
1357.7	0.0003813
1355.8	0.0002622
1353.9	0.0001789
1351.9	0.0001185
1350.0	0.0000790
1348.1	0.0000592
1346.1	0.0000533
1344.2	0.0000432
1342.3	0.0000207
1340.4	0.0000057
1338.4	-0.0000022
1336.5	-0.0000082
1334.6	0.0000057
1332.6	0.0000491
1330.7	0.0001035
1328.8	0.0001636
1326.9	0.0002533
1324.9	0.0003895
1323.0	0.0005807
1321.1	0.0008519
1319.1	0.0012374
1317.2	0.0017325
1315.3	0.0022538
1313.4	0.0026716
1311.4	0.0028920
1309.5	0.0028964
1307.6	0.0027248
1305.6	0.0024398
1303.7	0.0020862
1301.8	0.0017004
1299.9	0.0013401
1297.9	0.0010554
1296.0	0.0008613
1294.1	0.0007556
1292.1	0.0007234
1290.2	0.0007251
1288.3	0.0007269
1286.4	0.0007233
1284.4	0.0006994
1282.5	0.0006437
1280.6	0.0005842
1278.6	0.0005436
1276.7	0.0005116
1274.8	0.0004854
1272.9	0.0004734
1270.9	0.0004636
1269.0	0.0004437
1267.1	0.0004298
1265.1	0.0004309
1263.2	0.0004318
1261.3	0.0004278
1259.4	0.0004218
1257.4	0.0004195
1255.5	0.0004257
1253.6	0.0004198
1251.6	0.0003908
1249.7	0.0003666
1247.8	0.0003600
1245.9	0.0003520
1243.9	0.0003371
1242.0	0.0003340
1240.1	0.0003432
1238.1	0.0003393
1236.2	0.0003162
1234.3	0.0002904
1232.4	0.0002708
1230.4	0.0002486
1228.5	0.0002132
1226.6	0.0001724
1224.6	0.0001339
1222.7	0.0001006
1220.8	0.0000913
1218.9	0.0001109
1216.9	0.0001315
1215.0	0.0001319
1213.1	0.0001147
1211.1	0.0000864
1209.2	0.0000592
1207.3	0.0000514
1205.4	0.0000615
1203.4	0.0000692
1201.5	0.0000634
1199.6	0.0000462
1197.6	0.0000135
1195.7	0.0000068
1193.8	0.0000234
1191.9	0.0000354
1189.9	0.0000474
1188.0	0.0000633
1186.1	0.0000595
1184.1	0.0000453
1182.2	0.0000494
1180.3	0.0000655
1178.4	0.0000732
1176.4	0.0000587
1174.5	0.0000262
1172.6	0.0000140
1170.6	0.0000459
1168.7	0.0000797
1166.8	0.0000633
1164.9	0.0000221
1162.9	0.0000119
1161.0	0.0000201
1159.1	0.0000210
1157.1	0.0000344
1155.2	0.0000546
1153.3	0.0000486
1151.4	0.0000322
1149.4	0.0000331
1147.5	0.0000332
1145.6	0.0000257
1143.6	0.0000404
1141.7	0.0000708
1139.8	0.0000808
1137.9	0.0000632
1135.9	0.0000361
1134.0	0.0000321
1132.1	0.0000577
1130.1	0.0000639
1128.2	0.0000350
1126.3	0.0000196
1124.4	0.0000307
1122.4	0.0000403
1120.5	0.0000474
1118.6	0.0000551
1116.6	0.0000523
1114.7	0.0000490
1112.8	0.0000477
1110.9	0.0000385
1108.9	0.0000299
1107.0	0.0000229
1105.1	0.0000208
1103.1	0.0000407
1101.2	0.0000681
1099.3	0.0000672
1097.4	0.0000429
1095.4	0.0000322
1093.5	0.0000341
1091.6	0.0000254
1089.6	0.0000200
1087.7	0.0000337
1085.8	0.0000609
1083.9	0.0000947
1081.9	0.0001182
1080.0	0.0001140
1078.1	0.0000947
1076.1	0.0000862
1074.2	0.0000844
1072.3	0.0000652
1070.4	0.0000361
1068.4	0.0000318
1066.5	0.0000706
1064.6	0.0001465
1062.6	0.0002389
1060.7	0.0003301
1058.8	0.0004288
1056.9	0.0005602
1054.9	0.0007100
1053.0	0.0008027
1051.1	0.0007806
1049.1	0.0006742
1047.2	0.0005391
1045.3	0.0004208
1043.4	0.0003594
1041.4	0.0003401
1039.5	0.0003163
1037.6	0.0002800
1035.6	0.0002580
1033.7	0.0002735
1031.8	0.0003419
1029.9	0.0004571
1027.9	0.0005739
1026.0	0.0006681
1024.1	0.0007390
1022.1	0.0007572
1020.2	0.0007152
1018.3	0.0006468
1016.4	0.0005754
1014.4	0.0005044
1012.5	0.0004316
1010.6	0.0003663
1008.6	0.0003266
1006.7	0.0002969
1004.8	0.0002546
1002.9	0.0002246
1000.9	0.0002290
999.0	0.0002541
997.1	0.0002729
995.1	0.0002745
993.2	0.0002868
991.3	0.0003394
989.4	0.0004245
987.4	0.0004953
985.5	0.0005218
983.6	0.0005574
981.6	0.0006501
979.7	0.0007663
977.8	0.0008776
975.9	0.0010100
973.9	0.0011725
972.0	0.0013206
970.1	0.0014199
968.1	0.0014848
966.2	0.0015353
964.3	0.0015575
962.4	0.0015430
960.4	0.0015182
958.5	0.0014851
956.6	0.0014235
954.6	0.0013529
952.7	0.0012797
950.8	0.0011836
948.9	0.0010999
946.9	0.0010658
945.0	0.0010469
943.1	0.0009939
941.1	0.0008952
939.2	0.0007755
937.3	0.0006592
935.4	0.0005739
933.4	0.0005457
931.5	0.0005474
929.6	0.0005408
927.6	0.0005376
925.7	0.0005410
923.8	0.0005165
921.9	0.0004517
919.9	0.0003797
918.0	0.0003486
916.1	0.0003558
914.1	0.0003451
912.2	0.0003237
910.3	0.0003317
908.4	0.0003322
906.4	0.0003052
904.5	0.0003005
902.6	0.0003001
900.6	0.0002723
898.7	0.0002754
896.8	0.0002911
894.9	0.0002472
892.9	0.0001918
891.0	0.0001835
889.1	0.0002008
887.1	0.0001960
885.2	0.0001665
883.3	0.0001438
881.4	0.0001233
879.4	0.0001012
877.5	0.0000678
875.6	0.0000512
873.6	0.0001424
871.7	0.0002554
869.8	0.0002074
867.9	0.0000653
865.9	0.0000007
864.0	0.0000132
862.1	0.0000441
860.1	0.0000624
858.2	0.0000315
856.3	-0.0000112
854.4	-0.0000160
852.4	-0.0000017
850.5	0.0000077
848.6	-0.0000135
