3997.9	0.0001103
3996.0	0.0001071
3994.1	0.0001014
3992.1	0.0000959
3990.2	0.0000878
3988.3	0.0000785
3986.3	0.0000756
3984.4	0.0000709
3982.5	0.0000594
3980.6	0.0000530
3978.6	0.0000601
3976.7	0.0000725
3974.8	0.0000816
3972.8	0.0000888
3970.9	0.0000949
3969.0	0.0000898
3967.1	0.0000740
3965.1	0.0000646
3963.2	0.0000669
3961.3	0.0000685
3959.3	0.0000638
3957.4	0.0000552
3955.5	0.0000463
3953.6	0.0000397
3951.6	0.0000332
3949.7	0.0000217
3947.8	0.0000127
3945.8	0.0000197
3943.9	0.0000340
3942.0	0.0000332
3940.1	0.0000172
3938.1	0.0000041
3936.2	0.0000067
3934.3	0.0000169
3932.3	0.0000191
3930.4	0.0000162
3928.5	0.0000112
3926.6	-0.0000020
3924.6	-0.0000110
3922.7	-0.0000026
3920.8	0.0000112
3918.8	0.0000187
3916.9	0.0000251
3915.0	0.0000328
3913.1	0.0000348
3911.1	0.0000314
3909.2	0.0000289
3907.3	0.0000256
3905.3	0.0000206
3903.4	0.0000134
3901.5	0.0000102
3899.6	0.0000188
3897.6	0.0000324
3895.7	0.0000350
3893.8	0.0000256
3891.8	0.0000173
3889.9	0.0000131
3888.0	0.0000026
3886.1	-0.0000134
3884.1	-0.0000154
3882.2	-0.0000003
3880.3	0.0000116
3878.3	0.0000123
3876.4	0.0000090
3874.5	0.0000050
3872.6	0.0000044
3870.6	0.0000097
3868.7	0.0000084
3866.8	-0.0000081
3864.8	-0.0000260
3862.9	-0.0000308
3861.0	-0.0000292
3859.1	-0.0000297
3857.1	-0.0000245
3855.2	-0.0000036
3853.3	0.0000224
3851.3	0.0000211
3849.4	-0.0000046
3847.5	-0.0000156
3845.6	-0.0000028
3843.6	0.0000154
3841.7	0.0000213
3839.8	0.0000147
3837.8	0.0000037
3835.9	-0.0000082
3834.0	-0.0000157
3832.1	-0.0000098
3830.1	0.0000037
3828.2	0.0000129
3826.3	0.0000133
3824.3	0.0000093
3822.4	0.0000072
3820.5	-0.0000015
3818.6	-0.0000194
3816.6	-0.0000232
3814.7	-0.0000133
3812.8	-0.0000137
3810.8	-0.0000245
3808.9	-0.0000269
3807.0	-0.0000141
3805.1	-0.0000028
3803.1	-0.0000045
3801.2	-0.0000112
3799.3	-0.0000213
3797.3	-0.0000319
3795.4	-0.0000316
3793.5	-0.0000157
3791.6	0.0000082
3789.6	0.0000206
3787.7	0.0000119
3785.8	0.0000001
3783.8	-0.0000043
3781.9	-0.0000012
3780.0	0.0000075
3778.1	0.0000105
3776.1	0.0000026
3774.2	0.0000003
3772.3	0.0000085
3770.3	0.0000123
3768.4	0.0000094
3766.5	0.0000066
3764.6	0.0000019
3762.6	-0.0000006
3760.7	0.0000013
3758.8	0.0000008
3756.8	0.0000018
3754.9	0.0000053
3753.0	0.0000056
3751.1	0.0000085
3749.1	0.0000109
3747.2	0.0000064
3745.3	0.0000047
3743.3	0.0000067
3741.4	0.0000021
3739.5	-0.0000007
3737.6	0.0000106
3735.6	0.0000242
3733.7	0.0000186
3731.8	0.0000025
3729.8	0.0000015
3727.9	0.0000127
3726.0	0.0000161
3724.1	0.0000120
3722.1	0.0000146
3720.2	0.0000239
3718.3	0.0000282
3716.3	0.0000233
3714.4	0.0000168
3712.5	0.0000141
3710.6	0.0000115
3708.6	0.0000085
3706.7	0.0000030
3704.8	-0.0000085
3702.8	-0.0000151
3700.9	-0.0000069
3699.0	0.0000048
3697.1	0.0000037
3695.1	-0.0000077
3693.2	-0.0000157
3691.3	-0.0000172
3689.3	-0.0000062
3687.4	0.0000106
3685.5	0.0000111
3683.6	-0.0000016
3681.6	-0.0000003
3679.7	0.0000263
3677.8	0.0000595
3675.8	0.0000717
3673.9	0.0000500
3672.0	0.0000091
3670.1	-0.0000144
3668.1	-0.0000040
3666.2	0.0000163
3664.3	0.0000258
3662.3	0.0000321
3660.4	0.0000352
3658.5	0.0000298
3656.6	0.0000246
3654.6	0.0000296
3652.7	0.0000403
3650.8	0.0000519
3648.8	0.0000560
3646.9	0.0000432
3645.0	0.0000188
3643.1	-0.0000017
3641.1	-0.0000043
3639.2	0.0000072
3637.3	0.0000155
3635.3	0.0000118
3633.4	0.0000076
3631.5	0.0000107
3629.6	0.0000104
3627.6	-0.0000033
3625.7	-0.0000197
3623.8	-0.0000271
3621.8	-0.0000242
3619.9	-0.0000121
3618.0	0.0000032
3616.1	0.0000125
3614.1	0.0000131
3612.2	0.0000103
3610.3	0.0000122
3608.3	0.0000133
3606.4	0.0000036
3604.5	-0.0000099
3602.6	-0.0000170
3600.6	-0.0000182
3598.7	-0.0000175
3596.8	-0.0000149
3594.8	-0.0000099
3592.9	-0.0000044
3591.0	0.0000065
3589.1	0.0000216
3587.1	0.0000234
3585.2	0.0000119
3583.3	0.0000030
3581.3	-0.0000073
3579.4	-0.0000247
3577.5	-0.0000308
3575.6	-0.0000193
3573.6	-0.0000110
3571.7	-0.0000105
3569.8	-0.0000080
3567.8	-0.0000069
3565.9	-0.0000188
3564.0	-0.0000399
3562.1	-0.0000499
3560.1	-0.0000396
3558.2	-0.0000215
3556.3	-0.0000089
3554.3	-0.0000005
3552.4	0.0000044
3550.5	-0.0000015
3548.6	-0.0000102
3546.6	-0.0000043
3544.7	0.0000087
3542.8	0.0000118
3540.8	0.0000075
3538.9	0.0000058
3537.0	0.0000079
3535.1	0.0000088
3533.1	0.0000065
3531.2	0.0000054
3529.3	0.0000045
3527.3	-0.0000025
3525.4	-0.0000055
3523.5	0.0000072
3521.6	0.0000267
3519.6	0.0000400
3517.7	0.0000429
3515.8	0.0000361
3513.8	0.0000263
3511.9	0.0000197
3510.0	0.0000122
3508.1	-0.0000023
3506.1	-0.0000090
3504.2	0.0000052
3502.3	0.0000255
3500.3	0.0000296
3498.4	0.0000168
3496.5	0.0000063
3494.6	0.0000145
3492.6	0.0000327
3490.7	0.0000412
3488.8	0.0000347
3486.8	0.0000239
3484.9	0.0000211
3483.0	0.0000239
3481.1	0.0000199
3479.1	0.0000149
3477.2	0.0000226
3475.3	0.0000345
3473.3	0.0000350
3471.4	0.0000306
3469.5	0.0000309
3467.6	0.0000269
3465.6	0.0000161
3463.7	0.0000203
3461.8	0.0000408
3459.8	0.0000456
3457.9	0.0000277
3456.0	0.0000137
3454.1	0.0000118
3452.1	0.0000117
3450.2	0.0000096
3448.3	0.0000133
3446.3	0.0000183
3444.4	0.0000143
3442.5	0.0000068
3440.6	0.0000029
3438.6	0.0000063
3436.7	0.0000213
3434.8	0.0000406
3432.8	0.0000501
3430.9	0.0000411
3429.0	0.0000179
3427.1	0.0000012
3425.1	0.0000009
3423.2	0.0000044
3421.3	0.0000032
3419.3	0.0000007
3417.4	0.0000047
3415.5	0.0000129
3413.6	0.0000099
3411.6	-0.0000074
3409.7	-0.0000131
3407.8	-0.0000007
3405.8	0.0000049
3403.9	0.0000014
3402.0	0.0000089
3400.1	0.0000273
3398.1	0.0000445
3396.2	0.0000355
3394.3	0.0000125
3392.3	0.0000008
3390.4	0.0000084
3388.5	0.0000229
3386.6	0.0000311
3384.6	0.0000389
3382.7	0.0000455
3380.8	0.0000380
3378.8	0.0000200
3376.9	0.0000076
3375.0	0.0000024
3373.1	0.0000034
3371.1	0.0000125
3369.2	0.0000221
3367.3	0.0000256
3365.3	0.0000280
3363.4	0.0000271
3361.5	0.0000221
3359.6	0.0000187
3357.6	0.0000175
3355.7	0.0000196
3353.8	0.0000256
3351.8	0.0000318
3349.9	0.0000364
3348.0	0.0000368
3346.1	0.0000335
3344.1	0.0000335
3342.2	0.0000342
3340.3	0.0000238
3338.3	0.0000082
3336.4	0.0000073
3334.5	0.0000208
3332.6	0.0000293
3330.6	0.0000281
3328.7	0.0000276
3326.8	0.0000316
3324.8	0.0000299
3322.9	0.0000218
3321.0	0.0000163
3319.1	0.0000107
3317.1	0.0000051
3315.2	0.0000098
3313.3	0.0000187
3311.3	0.0000215
3309.4	0.0000243
3307.5	0.0000297
3305.6	0.0000280
3303.6	0.0000181
3301.7	0.0000104
3299.8	0.0000075
3297.8	0.0000124
3295.9	0.0000266
3294.0	0.0000350
3292.1	0.0000246
3290.1	0.0000117
3288.2	0.0000122
3286.3	0.0000146
3284.3	0.0000054
3282.4	-0.0000158
3280.5	-0.0000334
3278.6	-0.0000316
3276.6	-0.0000165
3274.7	-0.0000020
3272.8	0.0000059
3270.8	0.0000107
3268.9	0.0000168
3267.0	0.0000150
3265.1	-0.0000020
3263.1	-0.0000168
3261.2	-0.0000165
3259.3	-0.0000068
3257.3	0.0000033
3255.4	0.0000030
3253.5	-0.0000080
3251.6	-0.0000159
3249.6	-0.0000114
3247.7	-0.0000000
3245.8	0.0000075
3243.8	0.0000050
3241.9	-0.0000022
3240.0	-0.0000108
3238.1	-0.0000205
3236.1	-0.0000241
3234.2	-0.0000165
3232.3	-0.0000083
3230.3	-0.0000097
3228.4	-0.0000109
3226.5	-0.0000048
3224.6	0.0000019
3222.6	0.0000047
3220.7	-0.0000012
3218.8	-0.0000118
3216.8	-0.0000128
3214.9	-0.0000052
3213.0	-0.0000012
3211.1	-0.0000033
3209.1	-0.0000065
3207.2	-0.0000093
3205.3	-0.0000118
3203.3	-0.0000095
3201.4	0.0000017
3199.5	0.0000160
3197.6	0.0000213
3195.6	0.0000168
3193.7	0.0000063
3191.8	-0.0000063
3189.8	-0.0000127
3187.9	-0.0000099
3186.0	-0.0000045
3184.1	0.0000000
3182.1	0.0000039
3180.2	0.0000052
3178.3	0.0000052
3176.3	0.0000078
3174.4	0.0000134
3172.5	0.0000209
3170.6	0.0000268
3168.6	0.0000325
3166.7	0.0000419
3164.8	0.0000509
3162.8	0.0000488
3160.9	0.0000368
3159.0	0.0000246
3157.1	0.0000182
3155.1	0.0000221
3153.2	0.0000349
3151.3	0.0000493
3149.3	0.0000605
3147.4	0.0000629
3145.5	0.0000568
3143.6	0.0000537
3141.6	0.0000593
3139.7	0.0000658
3137.8	0.0000647
3135.8	0.0000587
3133.9	0.0000551
3132.0	0.0000521
3130.1	0.0000513
3128.1	0.0000600
3126.2	0.0000726
3124.3	0.0000786
3122.3	0.0000812
3120.4	0.0000801
3118.5	0.0000709
3116.6	0.0000571
3114.6	0.0000508
3112.7	0.0000548
3110.8	0.0000581
3108.8	0.0000579
3106.9	0.0000601
3105.0	0.0000639
3103.1	0.0000587
3101.1	0.0000485
3099.2	0.0000456
3097.3	0.0000477
3095.3	0.0000482
3093.4	0.0000489
3091.5	0.0000527
3089.6	0.0000588
3087.6	0.0000668
3085.7	0.0000685
3083.8	0.0000574
3081.8	0.0000461
3079.9	0.0000489
3078.0	0.0000576
3076.1	0.0000553
3074.1	0.0000467
3072.2	0.0000420
3070.3	0.0000440
3068.3	0.0000451
3066.4	0.0000387
3064.5	0.0000312
3062.6	0.0000338
3060.6	0.0000406
3058.7	0.0000410
3056.8	0.0000373
3054.8	0.0000385
3052.9	0.0000407
3051.0	0.0000335
3049.1	0.0000180
3047.1	0.0000079
3045.2	0.0000141
3043.3	0.0000272
3041.3	0.0000326
3039.4	0.0000248
3037.5	0.0000143
3035.6	0.0000088
3033.6	0.0000066
3031.7	0.0000068
3029.8	0.0000061
3027.8	0.0000063
3025.9	0.0000114
3024.0	0.0000192
3022.1	0.0000328
3020.1	0.0000641
3018.2	0.0001014
3016.3	0.0001110
3014.3	0.0000862
3012.4	0.0000538
3010.5	0.0000337
3008.6	0.0000244
3006.6	0.0000178
3004.7	0.0000103
3002.8	0.0000015
3000.8	-0.0000035
2998.9	0.0000035
2997.0	0.0000033
2995.1	0.0000051
2993.1	0.0000081
2991.2	0.0000088
2989.3	0.0000051
2987.3	-0.0000011
2985.4	-0.0000045
2983.5	-0.0000059
2981.6	-0.0000097
2979.6	-0.0000142
2977.7	-0.0000144
2975.8	-0.0000101
2973.8	-0.0000102
2971.9	-0.0000159
2970.0	-0.0000143
2968.1	-0.0000071
2966.1	-0.0000104
2964.2	-0.0000184
2962.3	-0.0000181
2960.3	-0.0000128
2958.4	-0.0000088
2956.5	-0.0000060
2954.6	-0.0000025
2952.6	-0.0000024
2950.7	-0.0000054
2948.8	-0.0000005
2946.8	0.0000061
2944.9	0.0000023
2943.0	-0.0000036
2941.1	-0.0000027
2939.1	0.0000020
2937.2	0.0000035
2935.3	0.0000008
2933.3	0.0000035
2931.4	0.0000099
2929.5	0.0000074
2927.6	-0.0000025
2925.6	-0.0000090
2923.7	-0.0000088
2921.8	-0.0000017
2919.8	0.0000070
2917.9	0.0000115
2916.0	0.0000098
2914.1	0.0000020
2912.1	-0.0000033
2910.2	0.0000021
2908.3	0.0000100
2906.3	0.0000106
2904.4	0.0000089
2902.5	0.0000116
2900.6	0.0000177
2898.6	0.0000243
2896.7	0.0000286
2894.8	0.0000285
2892.8	0.0000251
2890.9	0.0000185
2889.0	0.0000095
2887.1	0.0000056
2885.1	0.0000075
2883.2	0.0000077
2881.3	0.0000058
2879.3	0.0000030
2877.4	-0.0000022
2875.5	-0.0000053
2873.6	-0.0000033
2871.6	0.0000020
2869.7	0.0000031
2867.8	-0.0000045
2865.8	-0.0000104
2863.9	-0.0000038
2862.0	0.0000099
2860.1	0.0000146
2858.1	0.0000085
2856.2	0.0000064
2854.3	0.0000118
2852.3	0.0000167
2850.4	0.0000193
2848.5	0.0000165
2846.6	0.0000041
2844.6	-0.0000099
2842.7	-0.0000174
2840.8	-0.0000173
2838.8	-0.0000097
2836.9	-0.0000015
2835.0	0.0000015
2833.1	0.0000049
2831.1	0.0000074
2829.2	0.0000003
2827.3	-0.0000088
2825.3	-0.0000060
2823.4	0.0000050
2821.5	0.0000111
2819.6	0.0000115
2817.6	0.0000116
2815.7	0.0000118
2813.8	0.0000093
2811.8	0.0000026
2809.9	-0.0000027
2808.0	-0.0000008
2806.1	0.0000041
2804.1	0.0000060
2802.2	0.0000030
2800.3	-0.0000038
2798.3	-0.0000131
2796.4	-0.0000199
2794.5	-0.0000168
2792.6	-0.0000040
2790.6	0.0000086
2788.7	0.0000121
2786.8	0.0000092
2784.8	0.0000051
2782.9	-0.0000029
2781.0	-0.0000134
2779.1	-0.0000162
2777.1	-0.0000116
2775.2	-0.0000089
2773.3	-0.0000086
2771.3	-0.0000053
2769.4	-0.0000012
2767.5	-0.0000015
2765.6	-0.0000030
2763.6	-0.0000039
2761.7	-0.0000061
2759.8	-0.0000088
2757.8	-0.0000107
2755.9	-0.0000092
2754.0	0.0000002
2752.1	0.0000130
2750.1	0.0000189
2748.2	0.0000185
2746.3	0.0000177
2744.3	0.0000136
2742.4	0.0000060
2740.5	0.0000039
2738.6	0.0000106
2736.6	0.0000194
2734.7	0.0000224
2732.8	0.0000166
2730.8	0.0000055
2728.9	-0.0000037
2727.0	-0.0000088
2725.1	-0.0000095
2723.1	-0.0000067
2721.2	-0.0000058
2719.3	-0.0000085
2717.3	-0.0000121
2715.4	-0.0000143
2713.5	-0.0000134
2711.6	-0.0000085
2709.6	-0.0000032
2707.7	0.0000018
2705.8	0.0000094
2703.8	0.0000094
2701.9	-0.0000030
2700.0	-0.0000121
2698.1	-0.0000087
2696.1	-0.0000022
2694.2	-0.0000014
2692.3	-0.0000086
2690.3	-0.0000161
2688.4	-0.0000147
2686.5	-0.0000077
2684.6	-0.0000018
2682.6	0.0000010
2680.7	0.0000030
2678.8	0.0000090
2676.8	0.0000145
2674.9	0.0000114
2673.0	0.0000009
2671.1	-0.0000071
2669.1	-0.0000070
2667.2	-0.0000046
2665.3	-0.0000044
2663.3	-0.0000042
2661.4	0.0000020
2659.5	0.0000128
2657.6	0.0000162
2655.6	0.0000132
2653.7	0.0000125
2651.8	0.0000148
2649.8	0.0000148
2647.9	0.0000089
2646.0	0.0000023
2644.1	0.0000013
2642.1	0.0000019
2640.2	-0.0000022
2638.3	-0.0000080
2636.3	-0.0000080
2634.4	-0.0000055
2632.5	-0.0000079
2630.6	-0.0000119
2628.6	-0.0000078
2626.7	0.0000008
2624.8	0.0000015
2622.8	-0.0000044
2620.9	-0.0000065
2619.0	-0.0000073
2617.1	-0.0000119
2615.1	-0.0000150
2613.2	-0.0000137
2611.3	-0.0000123
2609.3	-0.0000114
2607.4	-0.0000081
2605.5	-0.0000035
2603.6	-0.0000001
2601.6	-0.0000000
2599.7	-0.0000027
2597.8	-0.0000034
2595.8	-0.0000019
2593.9	0.0000007
2592.0	0.0000045
2590.1	0.0000048
2588.1	0.0000027
2586.2	0.0000002
2584.3	-0.0000070
2582.3	-0.0000122
2580.4	-0.0000097
2578.5	-0.0000086
2576.6	-0.0000132
2574.6	-0.0000148
2572.7	-0.0000094
2570.8	-0.0000060
2568.8	-0.0000117
2566.9	-0.0000191
2565.0	-0.0000227
2563.1	-0.0000231
2561.1	-0.0000179
2559.2	-0.0000100
2557.3	-0.0000089
2555.3	-0.0000146
2553.4	-0.0000182
2551.5	-0.0000151
2549.6	-0.0000078
2547.6	-0.0000038
2545.7	-0.0000024
2543.8	0.0000032
2541.8	0.0000065
2539.9	0.0000025
2538.0	-0.0000023
2536.1	-0.0000070
2534.1	-0.0000093
2532.2	-0.0000048
2530.3	0.0000022
2528.3	0.0000082
2526.4	0.0000119
2524.5	0.0000115
2522.6	0.0000109
2520.6	0.0000123
2518.7	0.0000126
2516.8	0.0000118
2514.8	0.0000131
2512.9	0.0000126
2511.0	0.0000060
2509.1	-0.0000005
2507.1	-0.0000024
2505.2	-0.0000030
2503.3	-0.0000009
2501.3	0.0000086
2499.4	0.0000181
2497.5	0.0000129
2495.6	-0.0000010
2493.6	-0.0000007
2491.7	0.0000099
2489.8	0.0000099
2487.8	0.0000028
2485.9	0.0000005
2484.0	0.0000019
2482.1	0.0000045
2480.1	0.0000065
2478.2	0.0000074
2476.3	0.0000067
2474.3	0.0000045
2472.4	0.0000055
2470.5	0.0000087
2468.6	0.0000111
2466.6	0.0000125
2464.7	0.0000123
2462.8	0.0000148
2460.8	0.0000196
2458.9	0.0000173
2457.0	0.0000080
2455.1	0.0000045
2453.1	0.0000101
2451.2	0.0000178
2449.3	0.0000198
2447.3	0.0000166
2445.4	0.0000172
2443.5	0.0000190
2441.6	0.0000160
2439.6	0.0000138
2437.7	0.0000107
2435.8	0.0000050
2433.8	0.0000047
2431.9	0.0000082
2430.0	0.0000089
2428.1	0.0000095
2426.1	0.0000138
2424.2	0.0000180
2422.3	0.0000152
2420.3	0.0000095
2418.4	0.0000108
2416.5	0.0000187
2414.6	0.0000263
2412.6	0.0000255
2410.7	0.0000153
2408.8	0.0000098
2406.8	0.0000126
2404.9	0.0000126
2403.0	0.0000079
2401.1	0.0000040
2399.1	0.0000046
2397.2	0.0000063
2395.3	0.0000050
2393.3	0.0000095
2391.4	0.0000206
2389.5	0.0000248
2387.6	0.0000213
2385.6	0.0000175
2383.7	0.0000153
2381.8	0.0000152
2379.8	0.0000088
2377.9	-0.0000087
2376.0	-0.0000203
2374.1	-0.0000178
2372.1	-0.0000188
2370.2	-0.0000318
2368.3	-0.0000423
2366.3	-0.0000477
2364.4	-0.0000598
2362.5	-0.0000722
2360.6	-0.0000733
2358.6	-0.0000685
2356.7	-0.0000614
2354.8	-0.0000487
2352.8	-0.0000317
2350.9	-0.0000138
2349.0	-0.0000053
2347.1	-0.0000139
2345.1	-0.0000301
2343.2	-0.0000449
2341.3	-0.0000559
2339.3	-0.0000570
2337.4	-0.0000464
2335.5	-0.0000320
2333.6	-0.0000225
2331.6	-0.0000193
2329.7	-0.0000200
2327.8	-0.0000205
2325.8	-0.0000206
2323.9	-0.0000214
2322.0	-0.0000189
2320.1	-0.0000126
2318.1	-0.0000061
2316.2	0.0000067
2314.3	0.0000257
2312.3	0.0000324
2310.4	0.0000244
2308.5	0.0000209
2306.6	0.0000249
2304.6	0.0000248
2302.7	0.0000233
2300.8	0.0000271
2298.8	0.0000293
2296.9	0.0000266
2295.0	0.0000263
2293.1	0.0000274
2291.1	0.0000245
2289.2	0.0000193
2287.3	0.0000172
2285.3	0.0000199
2283.4	0.0000245
2281.5	0.0000275
2279.6	0.0000284
2277.6	0.0000254
2275.7	0.0000153
2273.8	0.0000047
2271.8	0.0000054
2269.9	0.0000129
2268.0	0.0000167
2266.1	0.0000187
2264.1	0.0000210
2262.2	0.0000200
2260.3	0.0000179
2258.3	0.0000190
2256.4	0.0000228
2254.5	0.0000286
2252.6	0.0000316
2250.6	0.0000283
2248.7	0.0000238
2246.8	0.0000192
2244.8	0.0000108
2242.9	0.0000045
2241.0	0.0000117
2239.1	0.0000315
2237.1	0.0000471
2235.2	0.0000448
2233.3	0.0000315
2231.3	0.0000245
2229.4	0.0000261
2227.5	0.0000241
2225.6	0.0000153
2223.6	0.0000100
2221.7	0.0000150
2219.8	0.0000191
2217.8	0.0000111
2215.9	0.0000032
2214.0	0.0000088
2212.1	0.0000188
2210.1	0.0000221
2208.2	0.0000212
2206.3	0.0000203
2204.3	0.0000204
2202.4	0.0000231
2200.5	0.0000244
2198.6	0.0000194
2196.6	0.0000129
2194.7	0.0000115
2192.8	0.0000153
2190.8	0.0000198
2188.9	0.0000243
2187.0	0.0000316
2185.1	0.0000370
2183.1	0.0000353
2181.2	0.0000310
2179.3	0.0000274
2177.3	0.0000237
2175.4	0.0000229
2173.5	0.0000243
2171.6	0.0000216
2169.6	0.0000138
2167.7	0.0000092
2165.8	0.0000149
2163.8	0.0000217
2161.9	0.0000212
2160.0	0.0000275
2158.1	0.0000418
2156.1	0.0000429
2154.2	0.0000306
2152.3	0.0000237
2150.3	0.0000228
2148.4	0.0000205
2146.5	0.0000218
2144.6	0.0000294
2142.6	0.0000378
2140.7	0.0000461
2138.8	0.0000499
2136.8	0.0000456
2134.9	0.0000408
2133.0	0.0000403
2131.1	0.0000362
2129.1	0.0000298
2127.2	0.0000313
2125.3	0.0000372
2123.3	0.0000400
2121.4	0.0000452
2119.5	0.0000541
2117.6	0.0000550
2115.6	0.0000451
2113.7	0.0000376
2111.8	0.0000432
2109.8	0.0000569
2107.9	0.0000659
2106.0	0.0000682
2104.1	0.0000751
2102.1	0.0000885
2100.2	0.0001022
2098.3	0.0001392
2096.3	0.0001625
2094.4	0.0002040
2092.5	0.0002820
2090.6	0.0004182
2088.6	0.0006152
2086.7	0.0008315
2084.8	0.0010163
2082.8	0.0011341
2080.9	0.0011555
2079.0	0.0010792
2077.1	0.0009510
2075.1	0.0008291
2073.2	0.0007440
2071.3	0.0006903
2069.3	0.0006419
2067.4	0.0005817
2065.5	0.0005127
2063.6	0.0004463
2061.6	0.0003864
2059.7	0.0003341
2057.8	0.0002961
2055.8	0.0002734
2053.9	0.0002624
2052.0	0.0002649
2050.1	0.0002717
2048.1	0.0002585
2046.2	0.0002186
2044.3	0.0001742
2042.3	0.0001459
2040.4	0.0001340
2038.5	0.0001325
2036.6	0.0001340
2034.6	0.0001326
2032.7	0.0001301
2030.8	0.0001305
2028.8	0.0001257
2026.9	0.0001115
2025.0	0.0000981
2023.1	0.0000892
2021.1	0.0000837
2019.2	0.0000831
2017.3	0.0000876
2015.3	0.0000938
2013.4	0.0000961
2011.5	0.0000949
2009.6	0.0000958
2007.6	0.0000967
2005.7	0.0000955
2003.8	0.0000973
2001.8	0.0001013
1999.9	0.0000999
1998.0	0.0000941
1996.1	0.0000928
1994.1	0.0000961
1992.2	0.0000994
1990.3	0.0001045
1988.3	0.0001091
1986.4	0.0001086
1984.5	0.0001067
1982.6	0.0001065
1980.6	0.0001067
1978.7	0.0001077
1976.8	0.0001094
1974.8	0.0001130
1972.9	0.0001165
1971.0	0.0001168
1969.1	0.0001129
1967.1	0.0001031
1965.2	0.0000886
1963.3	0.0000954
1961.4	0.0001449
1959.4	0.0001933
1957.5	0.0001784
1955.6	0.0001253
1953.6	0.0000987
1951.7	0.0001026
1949.8	0.0001091
1947.9	0.0001093
1945.9	0.0001070
1944.0	0.0001072
1942.1	0.0001121
1940.1	0.0001195
1938.2	0.0001255
1936.3	0.0001262
1934.4	0.0001222
1932.4	0.0001222
1930.5	0.0001292
1928.6	0.0001329
1926.6	0.0001310
1924.7	0.0001288
1922.8	0.0001273
1920.9	0.0001224
1918.9	0.0001158
1917.0	0.0001164
1915.1	0.0001238
1913.1	0.0001245
1911.2	0.0001156
1909.3	0.0001086
1907.4	0.0001095
1905.4	0.0001164
1903.5	0.0001288
1901.6	0.0001418
1899.6	0.0001504
1897.7	0.0001511
1895.8	0.0001486
1893.9	0.0001573
1891.9	0.0001784
1890.0	0.0001980
1888.1	0.0002093
1886.1	0.0002150
1884.2	0.0002219
1882.3	0.0002319
1880.4	0.0002373
1878.4	0.0002382
1876.5	0.0002468
1874.6	0.0002595
1872.6	0.0002623
1870.7	0.0002561
1868.8	0.0002514
1866.9	0.0002508
1864.9	0.0002512
1863.0	0.0002473
1861.1	0.0002385
1859.1	0.0002267
1857.2	0.0002122
1855.3	0.0001969
1853.4	0.0001880
1851.4	0.0001884
1849.5	0.0001865
1847.6	0.0001769
1845.6	0.0001690
1843.7	0.0001662
1841.8	0.0001603
1839.9	0.0001479
1837.9	0.0001340
1836.0	0.0001259
1834.1	0.0001223
1832.1	0.0001149
1830.2	0.0001043
1828.3	0.0000962
1826.4	0.0000904
1824.4	0.0000864
1822.5	0.0000881
1820.6	0.0000974
1818.6	0.0001049
1816.7	0.0000999
1814.8	0.0000861
1812.9	0.0000777
1810.9	0.0000795
1809.0	0.0000815
1807.1	0.0000801
1805.1	0.0000817
1803.2	0.0000867
1801.3	0.0000901
1799.4	0.0000875
1797.4	0.0000786
1795.5	0.0000652
1793.6	0.0000522
1791.6	0.0000483
1789.7	0.0000546
1787.8	0.0000652
1785.9	0.0000695
1783.9	0.0000602
1782.0	0.0000484
1780.1	0.0000476
1778.1	0.0000492
1776.2	0.0000455
1774.3	0.0000481
1772.4	0.0000606
1770.4	0.0000639
1768.5	0.0000479
1766.6	0.0000284
1764.6	0.0000198
1762.7	0.0000174
1760.8	0.0000088
1758.9	-0.0000055
1756.9	-0.0000163
1755.0	-0.0000262
1753.1	-0.0000414
1751.1	-0.0000527
1749.2	-0.0000523
1747.3	-0.0000511
1745.4	-0.0000571
1743.4	-0.0000637
1741.5	-0.0000607
1739.6	-0.0000503
1737.6	-0.0000405
1735.7	-0.0000374
1733.8	-0.0000392
1731.9	-0.0000383
1729.9	-0.0000370
1728.0	-0.0000435
1726.1	-0.0000551
1724.1	-0.0000680
1722.2	-0.0000853
1720.3	-0.0001042
1718.4	-0.0001118
1716.4	-0.0001102
1714.5	-0.0001188
1712.6	-0.0001355
1710.6	-0.0001382
1708.7	-0.0001289
1706.8	-0.0001281
1704.9	-0.0001429
1702.9	-0.0001602
1701.0	-0.0001721
1699.1	-0.0001926
1697.1	-0.0002278
1695.2	-0.0002616
1693.3	-0.0002835
1691.4	-0.0002925
1689.4	-0.0002956
1687.5	-0.0003063
1685.6	-0.0003188
1683.6	-0.0003135
1681.7	-0.0002951
1679.8	-0.0002763
1677.9	-0.0002486
1675.9	-0.0002098
1674.0	-0.0001828
1672.1	-0.0001778
1670.1	-0.0001751
1668.2	-0.0001631
1666.3	-0.0001568
1664.4	-0.0001640
1662.4	-0.0001672
1660.5	-0.0001534
1658.6	-0.0001355
1656.6	-0.0001285
1654.7	-0.0001282
1652.8	-0.0001293
1650.9	-0.0001451
1648.9	-0.0001785
1647.0	-0.0002147
1645.1	-0.0002465
1643.1	-0.0002773
1641.2	-0.0003028
1639.3	-0.0003099
1637.4	-0.0002862
1635.4	-0.0002526
1633.5	-0.0002417
1631.6	-0.0002473
1629.6	-0.0002402
1627.7	-0.0002114
1625.8	-0.0001784
1623.9	-0.0001603
1621.9	-0.0001610
1620.0	-0.0001736
1618.1	-0.0001880
1616.1	-0.0001958
1614.2	-0.0001905
1612.3	-0.0001738
1610.4	-0.0001572
1608.4	-0.0001459
1606.5	-0.0001335
1604.6	-0.0001183
1602.6	-0.0001002
1600.7	-0.0000668
1598.8	-0.0000179
1596.9	0.0000177
1594.9	0.0000199
1593.0	0.0000055
1591.1	-0.0000063
1589.1	-0.0000205
1587.2	-0.0000430
1585.3	-0.0000625
1583.4	-0.0000637
1581.4	-0.0000450
1579.5	-0.0000162
1577.6	0.0000080
1575.6	0.0000136
1573.7	0.0000032
1571.8	-0.0000056
1569.9	-0.0000116
1567.9	-0.0000173
1566.0	-0.0000089
1564.1	0.0000080
1562.1	0.0000137
1560.2	0.0000118
1558.3	0.0000058
1556.4	-0.0000122
1554.4	-0.0000349
1552.5	-0.0000448
1550.6	-0.0000324
1548.6	-0.0000116
1546.7	0.0000027
1544.8	0.0000243
1542.9	0.0000670
1540.9	0.0001170
1539.0	0.0001416
1537.1	0.0001215
1535.1	0.0000738
1533.2	0.0000223
1531.3	-0.0000337
1529.4	-0.0000996
1527.4	-0.0001642
1525.5	-0.0002143
1523.6	-0.0002562
1521.6	-0.0003042
1519.7	-0.0003436
1517.8	-0.0003239
1515.9	-0.0002107
1513.9	-0.0000170
1512.0	0.0001992
1510.1	0.0003654
1508.1	0.0004495
1506.2	0.0004701
1504.3	0.0004477
1502.4	0.0003881
1500.4	0.0002838
1498.5	0.0001377
1496.6	-0.0000111
1494.6	-0.0001206
1492.7	-0.0001847
1490.8	-0.0002122
1488.9	-0.0001949
1486.9	-0.0001343
1485.0	-0.0000526
1483.1	0.0000189
1481.1	0.0000627
1479.2	0.0000857
1477.3	0.0000963
1475.4	0.0000958
1473.4	0.0001051
1471.5	0.0001389
1469.6	0.0001641
1467.6	0.0001483
1465.7	0.0001063
1463.8	0.0000671
1461.9	0.0000371
1459.9	0.0000150
1458.0	0.0000059
1456.1	0.0000071
1454.1	0.0000095
1452.2	0.0000107
1450.3	0.0000141
1448.4	0.0000187
1446.4	0.0000120
1444.5	-0.0000110
1442.6	-0.0000307
1440.6	-0.0000227
1438.7	0.0000108
1436.8	0.0000380
1434.9	0.0000334
1432.9	0.0000045
1431.0	-0.0000299
1429.1	-0.0000560
1427.1	-0.0000572
1425.2	-0.0000275
1423.3	0.0000205
1421.4	0.0000873
1419.4	0.0001838
1417.5	0.0003067
1415.6	0.0004558
1413.6	0.0006285
1411.7	0.0007776
1409.8	0.0008152
1407.9	0.0006896
1405.9	0.0004460
1404.0	0.0001877
1402.1	-0.0000062
1400.1	-0.0001170
1398.2	-0.0001676
1396.3	-0.0001853
1394.4	-0.0001820
1392.4	-0.0001652
1390.5	-0.0001321
1388.6	-0.0000588
1386.6	0.0000666
1384.7	0.0001853
1382.8	0.0002178
1380.9	0.0001784
1378.9	0.0001354
1377.0	0.0001067
1375.1	0.0000743
1373.1	0.0000311
1371.2	-0.0000179
1369.3	-0.0000584
1367.4	-0.0000775
1365.4	-0.0000794
1363.5	-0.0000736
1361.6	-0.0000639
1359.6	-0.0000505
1357.7	-0.0000329
1355.8	-0.0000107
1353.9	0.0000199
1351.9	0.0000547
1350.0	0.0000732
1348.1	0.0000680
1346.1	0.0000610
1344.2	0.0000738
1342.3	0.0000982
1340.4	0.0001141
1338.4	0.0001171
1336.5	0.0001195
1334.6	0.0001322
1332.6	0.0001502
1330.7	0.0001615
1328.8	0.0001653
1326.9	0.0001658
1324.9	0.0001592
1323.0	0.0001452
1321.1	0.0001281
1319.1	0.0001074
1317.2	0.0000826
1315.3	0.0000617
1313.4	0.0000556
1311.4	0.0000584
1309.5	0.0000545
1307.6	0.0000427
1305.6	0.0000288
1303.7	0.0000107
1301.8	-0.0000075
1299.9	-0.0000119
1297.9	0.0000015
1296.0	0.0000226
1294.1	0.0000390
1292.1	0.0000447
1290.2	0.0000512
1288.3	0.0000690
1286.4	0.0000883
1284.4	0.0001019
1282.5	0.0001090
1280.6	0.0001045
1278.6	0.0000884
1276.7	0.0000669
1274.8	0.0000460
1272.9	0.0000301
1270.9	0.0000205
1269.0	0.0000186
1267.1	0.0000282
1265.1	0.0000556
1263.2	0.0000958
1261.3	0.0001196
1259.4	0.0001013
1257.4	0.0000449
1255.5	-0.0000337
1253.6	-0.0001170
1251.6	-0.0001799
1249.7	-0.0002038
1247.8	-0.0002007
1245.9	-0.0001829
1243.9	-0.0001533
1242.0	-0.0001196
1240.1	-0.0000962
1238.1	-0.0000855
1236.2	-0.0000815
1234.3	-0.0000830
1232.4	-0.0000908
1230.4	-0.0001047
1228.5	-0.0001267
1226.6	-0.0001575
1224.6	-0.0001901
1222.7	-0.0002062
1220.8	-0.0001988
1218.9	-0.0001756
1216.9	-0.0001503
1215.0	-0.0001288
1213.1	-0.0001060
1211.1	-0.0000806
1209.2	-0.0000641
1207.3	-0.0000614
1205.4	-0.0000614
1203.4	-0.0000616
1201.5	-0.0000581
1199.6	-0.0000161
1197.6	-0.0000094
1195.7	0.0000072
1193.8	0.0000200
1191.9	0.0000088
1189.9	-0.0000194
1188.0	-0.0000435
1186.1	-0.0000538
1184.1	-0.0000608
1182.2	-0.0000693
1180.3	-0.0000668
1178.4	-0.0000541
1176.4	-0.0000469
1174.5	-0.0000438
1172.6	-0.0000285
1170.6	-0.0000080
1168.7	-0.0000014
1166.8	-0.0000003
1164.9	0.0000102
1162.9	0.0000228
1161.0	0.0000241
1159.1	0.0000191
1157.1	0.0000233
1155.2	0.0000393
1153.3	0.0000510
1151.4	0.0000513
1149.4	0.0000525
1147.5	0.0000578
1145.6	0.0000581
1143.6	0.0000577
1141.7	0.0000610
1139.8	0.0000603
1137.9	0.0000532
1135.9	0.0000514
1134.0	0.0000631
1132.1	0.0000748
1130.1	0.0000733
1128.2	0.0000684
1126.3	0.0000721
1124.4	0.0000818
1122.4	0.0000834
1120.5	0.0000721
1118.6	0.0000612
1116.6	0.0000617
1114.7	0.0000695
1112.8	0.0000793
1110.9	0.0000882
1108.9	0.0000860
1107.0	0.0000722
1105.1	0.0000672
1103.1	0.0000804
1101.2	0.0000914
1099.3	0.0000943
1097.4	0.0001104
1095.4	0.0001357
1093.5	0.0001413
1091.6	0.0001244
1089.6	0.0001133
1087.7	0.0001207
1085.8	0.0001330
1083.9	0.0001390
1081.9	0.0001457
1080.0	0.0001717
1078.1	0.0002139
1076.1	0.0002428
1074.2	0.0002447
1072.3	0.0002278
1070.4	0.0001979
1068.4	0.0001679
1066.5	0.0001595
1064.6	0.0001714
1062.6	0.0001807
1060.7	0.0001732
1058.8	0.0001518
1056.9	0.0001314
1054.9	0.0001105
1053.0	0.0000813
1051.1	0.0000688
1049.1	0.0000822
1047.2	0.0000894
1045.3	0.0000731
1043.4	0.0000531
1041.4	0.0000494
1039.5	0.0000495
1037.6	0.0000396
1035.6	0.0000307
1033.7	0.0000281
1031.8	0.0000256
1029.9	0.0000203
1027.9	0.0000122
1026.0	-0.0000007
1024.1	-0.0000195
1022.1	-0.0000359
1020.2	-0.0000427
1018.3	-0.0000462
1016.4	-0.0000532
1014.4	-0.0000573
1012.5	-0.0000476
1010.6	-0.0000236
1008.6	0.0000066
1006.7	0.0000388
1004.8	0.0000688
1002.9	0.0000887
1000.9	0.0001019
999.0	0.0001238
997.1	0.0001527
995.1	0.0001713
993.2	0.0001841
991.3	0.0002073
989.4	0.0002362
987.4	0.0002487
985.5	0.0002451
983.6	0.0002483
981.6	0.0002560
979.7	0.0002479
977.8	0.0002220
975.9	0.0002013
973.9	0.0001995
972.0	0.0001944
970.1	0.0001744
968.1	0.0001592
966.2	0.0001634
964.3	0.0001706
962.4	0.0001590
960.4	0.0001395
958.5	0.0001293
956.6	0.0001224
954.6	0.0001170
952.7	0.0001349
950.8	0.0001573
948.9	0.0001367
946.9	0.0001062
945.0	0.0001213
943.1	0.0001550
941.1	0.0001683
939.2	0.0001673
937.3	0.0001625
935.4	0.0001571
933.4	0.0001461
931.5	0.0001306
929.6	0.0001280
927.6	0.0001322
925.7	0.0001236
923.8	0.0001067
921.9	0.0000995
919.9	0.0001004
918.0	0.0000992
916.1	0.0000953
914.1	0.0000867
912.2	0.0000765
910.3	0.0000728
908.4	0.0000849
906.4	0.0000892
904.5	0.0000586
902.6	0.0000166
900.6	-0.0000096
898.7	-0.0000082
896.8	-0.0000147
894.9	-0.0000455
892.9	-0.0000606
891.0	-0.0000666
889.1	-0.0000315
887.1	0.0000846
885.2	0.0000426
883.3	-0.0004291
881.4	-0.0008461
879.4	-0.0005174
877.5	0.0000956
875.6	0.0002484
873.6	0.0002326
871.7	0.0003942
869.8	0.0003577
867.9	0.0000443
865.9	-0.0000536
864.0	0.0001206
862.1	0.0001805
860.1	0.0000207
858.2	-0.0001351
856.3	-0.0001016
854.4	0.0000260
852.4	0.0000568
850.5	-0.0000156
848.6	-0.0000654
