3997.9	-4.194728327079577e-05
3996.0	-3.966300375225379e-05
3994.1	-3.693714243945227e-05
3992.1	-3.3943862384874026e-05
3990.2	-3.076521124701525e-05
3988.3	-2.8507933336582035e-05
3986.3	-2.5994469080454166e-05
3984.4	-2.2909073631889282e-05
3982.5	-1.982816626870035e-05
3980.6	-1.618321231908776e-05
3978.6	-1.4622513522732809e-05
3976.7	-1.794721017494274e-05
3974.8	-2.28101408313435e-05
3972.8	-2.3014653282003797e-05
3970.9	-2.0565211247015252e-05
3969.0	-2.1662955021685103e-05
3967.1	-2.010788460601335e-05
3965.1	-1.0057277910433214e-05
3963.2	-2.25611324984163e-06
3961.3	1.4180498026411936e-06
3959.3	8.11693387261829e-06
3957.4	1.3831562789337746e-05
3955.5	1.2051795721456062e-05
3953.6	6.28665757029384e-06
3951.6	9.430568685736553e-06
3949.7	2.5720525315530412e-05
3947.8	4.0621616880268976e-05
3945.8	4.231370790897128e-05
3943.9	3.2039593587057134e-05
3942.0	1.8810408849471258e-05
3940.1	1.0071010184688846e-05
3938.1	5.9192388285171185e-06
3936.2	8.697914331660238e-06
3934.3	2.1911573510062826e-05
3932.3	3.3374650358169644e-05
3930.4	3.196674138687198e-05
3928.5	3.1338575118171596e-05
3926.6	4.0313927196530354e-05
3924.6	4.564209346523072e-05
3922.7	4.6197163880902465e-05
3920.8	5.1920866429511176e-05
3918.8	6.0040105258028315e-05
3916.9	6.463328785146917e-05
3915.0	6.224874031479944e-05
3913.1	5.146649773402854e-05
3911.1	3.5111402953072456e-05
3909.2	2.5169967350518972e-05
3907.3	4.068952292773253e-05
3905.3	7.162167048389454e-05
3903.4	8.655583061254309e-05
3901.5	8.528952780078935e-05
3899.6	8.071946298913302e-05
3897.6	7.421996978704737e-05
3895.7	7.241962867306658e-05
3893.8	7.864012962331267e-05
3891.8	8.020002923834116e-05
3889.9	7.276739924954914e-05
3888.0	7.401133473027623e-05
3886.1	8.391053554894983e-05
3884.1	8.420929779250517e-05
3882.2	7.9574192290824e-05
3880.3	7.728525412991564e-05
3878.3	7.543668437210657e-05
3876.4	7.776252131962377e-05
3874.5	8.262018907460641e-05
3872.6	9.223993957409472e-05
3870.6	0.00010090680278738838
3868.7	9.209428390429301e-05
3866.8	8.271073047122447e-05
3864.8	8.74735393012036e-05
3862.9	8.642385361337155e-05
3861.0	7.480769455679546e-05
3859.1	7.336950928317327e-05
3857.1	0.00010412477949417654
3855.2	0.00015938660396666788
3853.3	0.00018036142488182826
3851.3	0.00013999889868914752
3849.4	8.937661907314448e-05
3847.5	7.175563081721162e-05
3845.6	8.037035719506841e-05
3843.6	8.830781638321711e-05
3841.7	9.528372886311568e-05
3839.8	0.00011988361190975083
3837.8	0.00013590544807757891
3835.9	0.00011655420788460596
3834.0	9.260612055942682e-05
3832.1	8.124949563861406e-05
3830.1	7.132787875834505e-05
3828.2	6.935805759953213e-05
3826.3	8.001989669119437e-05
3824.3	9.719566297938686e-05
3822.4	0.0001133683982262072
3820.5	0.0001196945519224208
3818.6	0.00012795639101408307
3816.6	0.00013899363091467246
3814.7	0.00012507502071049147
3812.8	9.47469470298718e-05
3810.8	8.546247258905506e-05
3808.9	0.00010370143755177619
3807.0	0.00012123232298620916
3805.1	0.0001271953023731786
3803.1	0.00014175983626528904
3801.2	0.00014858594123093408
3799.3	0.00012795818429901063
3797.3	0.00010758433312216752
3795.4	9.497940646167335e-05
3793.5	8.187792505238535e-05
3791.6	7.598449880610106e-05
3789.6	7.727326641001898e-05
3787.7	7.93980605233663e-05
3785.8	8.054422786413917e-05
3783.8	8.08723941328395e-05
3781.9	8.229951756736999e-05
3780.0	8.320529213975923e-05
3778.1	7.86613566590322e-05
3776.1	6.962513522732809e-05
3774.2	6.416332050095024e-05
3772.3	7.04255007065932e-05
3770.3	8.485961210467314e-05
3768.4	9.557198479606251e-05
3766.5	9.551109107743284e-05
3764.6	8.49468252034501e-05
3762.6	7.51984747332001e-05
3760.7	7.684030018030303e-05
3758.8	8.218763218166748e-05
3756.8	8.663037863651865e-05
3754.9	0.00010659069246138093
3753.0	0.00014531132011110545
3751.1	0.0001674144778519563
3749.1	0.0001561534379416205
3747.2	0.00015694662053506142
3745.3	0.00017881459967837782
3743.3	0.0001644733784903268
3741.4	0.00012260651040397628
3739.5	0.00011575670288972262
3737.6	0.0001369260416159056
3735.6	0.0001407074119194969
3733.7	0.00012107679450319172
3731.8	9.740864480288486e-05
3729.8	8.174498318795376e-05
3727.9	7.741324984162559e-05
3726.0	8.083355586959695e-05
3724.1	8.644706885629352e-05
3722.1	8.845374007114658e-05
3720.2	7.864682520345009e-05
3718.3	6.174325812582232e-05
3716.3	5.811305491935088e-05
3714.4	8.05283904293163e-05
3712.5	0.00010736509916670713
3710.6	0.00010578406997709653
3708.6	8.300912723551479e-05
3706.7	6.818491301593487e-05
3704.8	6.975114273183563e-05
3702.8	7.542778129720766e-05
3700.9	7.224908142878024e-05
3699.0	6.0897090785049444e-05
3697.1	5.2183455971931184e-05
3695.1	5.596902197748645e-05
3693.2	7.431456069392325e-05
3691.3	0.00010248409434238082
3689.3	0.00012149596023585589
3687.4	0.00010793021295258504
3685.5	7.603692802494999e-05
3683.6	5.617680912236244e-05
3681.6	5.3669046342770764e-05
3679.7	7.131800594512936e-05
3677.8	0.0001107833195263388
3675.8	0.00013774370644705413
3673.9	0.0001266748306612735
3672.0	0.00011071944349690544
3670.1	0.00010192041323522233
3668.1	7.953193314165968e-05
3666.2	6.058265679060469e-05
3664.3	5.957663856537205e-05
3662.3	6.449345061156863e-05
3660.4	7.37374591881487e-05
3658.5	8.933571463378974e-05
3656.6	9.669789483943275e-05
3654.6	8.498326592271325e-05
3652.7	8.159382096389049e-05
3650.8	0.00010498031285025077
3648.8	0.00011689974660104266
3646.9	9.033695726329109e-05
3645.0	5.804364797037175e-05
3643.1	4.5938599483455925e-05
3641.1	4.6807012328833864e-05
3639.2	5.144410603771744e-05
3637.3	5.516555236099603e-05
3635.3	5.459942010623261e-05
3633.4	5.9012133911602723e-05
3631.5	8.448943033965192e-05
3629.6	0.00011279700307002572
3627.6	0.00010264151844452017
3625.7	6.527072267433357e-05
3623.8	4.458374835534326e-05
3621.8	5.195939281711412e-05
3619.9	6.707894839432763e-05
3618.0	6.808227181911202e-05
3616.1	5.675728278349001e-05
3614.1	4.700558452317132e-05
3612.2	4.503156766239461e-05
3610.3	5.057885093319027e-05
3608.3	5.5167472345402194e-05
3606.4	5.2433336582037866e-05
3604.5	4.3473436967009385e-05
3602.6	3.447227230641781e-05
3600.6	3.372178743725937e-05
3598.7	3.797127820281661e-05
3596.8	3.6539885970469254e-05
3594.8	2.4938794405730702e-05
3592.9	1.8493840456118072e-05
3591.0	3.583898932800543e-05
3589.1	5.8994425222942264e-05
3587.1	5.754949563861408e-05
3585.2	3.66029871838604e-05
3583.3	1.9509341650017033e-05
3581.3	1.6903615808196473e-05
3579.4	2.2912616344232718e-05
3577.5	2.2687895326738456e-05
3575.6	1.2018195994347236e-05
3573.6	6.744008576580074e-06
3571.7	1.6767735490473155e-05
3569.8	3.297600994103597e-05
3567.8	4.555053847278391e-05
3565.9	4.820437113201104e-05
3564.0	4.4082632425320394e-05
3562.1	4.18262024267823e-05
3560.1	3.688340724136249e-05
3558.2	2.7437264265873973e-05
3556.3	2.143500804054382e-05
3554.3	2.1133965206373942e-05
3552.4	2.210031674869644e-05
3550.5	2.5241898542955987e-05
3548.6	3.3255460260221224e-05
3546.6	3.6124092393158196e-05
3544.7	2.5316159056576164e-05
3542.8	9.711500414209828e-06
3540.8	1.5631012133911551e-06
3538.9	4.141776716534277e-06
3537.0	1.296989425466594e-05
3535.1	2.1201310852297637e-05
3533.1	2.0277657034257583e-05
3531.2	1.0115891038448419e-05
3529.3	6.730617416305241e-06
3527.3	1.8083529067784208e-05
3525.4	2.9558832415574266e-05
3523.5	2.7628434286828098e-05
3521.6	1.8830568685736544e-05
3519.6	1.5913634813118255e-05
3517.7	1.6384401344963693e-05
3515.8	1.2210238292480867e-05
3513.8	1.018665757029384e-05
3511.9	1.5126031869791911e-05
3510.0	1.644966132254761e-05
3508.1	7.593474976852967e-06
3506.1	-6.739106281370306e-06
3504.2	-1.541884898396766e-05
3502.3	-8.753686467521095e-06
3500.3	3.964241508698393e-06
3498.4	9.947380731933127e-06
3496.5	1.7700219287559075e-05
3494.6	2.9451893182593428e-05
3492.6	3.1286681935578175e-05
3490.7	2.4085541640270938e-05
3488.8	1.65024024170362e-05
3486.8	8.960844988061003e-06
3484.9	5.981102285463664e-06
3483.0	8.746289167194571e-06
3481.1	1.3173217679450312e-05
3479.1	1.775630817211636e-05
3477.2	1.6952911651478967e-05
3475.3	7.169748062959889e-06
3473.3	-1.6752058866527041e-06
3471.4	-2.257394863798135e-07
3469.5	2.150704156717501e-06
3467.6	-6.742551532576395e-06
3465.6	-1.645606451927294e-05
3463.7	-1.1384182057404611e-05
3461.8	1.4101895619121827e-06
3459.8	7.423678183324392e-06
3457.9	7.972004288290035e-06
3456.0	6.551771356171719e-06
3454.1	2.9348862141221174e-06
3452.1	1.3618390916621967e-06
3450.2	4.798645290190487e-07
3448.3	-2.062760099410369e-06
3446.3	-2.6672481847863277e-06
3444.4	-2.020111105696611e-06
3442.5	-5.524647921641249e-06
3440.6	-1.2035904683007652e-05
3438.6	-1.4439276838360709e-05
3436.7	-1.3962833195263393e-05
3434.8	-1.864480775790654e-05
3432.8	-2.5696481652940892e-05
3430.9	-2.9652667998635546e-05
3429.0	-2.65560401539886e-05
3427.1	-1.3231319136494327e-05
3425.1	2.3498367525948393e-07
3423.2	1.372077384143052e-06
3421.3	-5.652643633351212e-06
3419.3	-9.048179913259596e-06
3417.4	-8.321251401003853e-06
3415.5	-1.0551600799181328e-05
3413.6	-1.5223507626334007e-05
3411.6	-1.566732128063935e-05
3409.7	-1.2127971346425617e-05
3407.8	-1.0642551532576388e-05
3405.8	-1.3433575361824477e-05
3403.9	-1.3148204278543937e-05
3402.0	-9.372900930753863e-06
3400.1	-7.842527167292048e-06
3398.1	-8.778480580868391e-06
3396.2	-1.1660503874080223e-05
3394.3	-1.5800921007748173e-05
3392.3	-1.9650338677452385e-05
3390.4	-1.7170595974855038e-05
3388.5	-4.747039617952345e-06
3386.6	1.9338433799522335e-06
3384.6	-5.4538082939428016e-06
3382.7	-1.0858296379318752e-05
3380.8	-3.818946445105023e-06
3378.8	6.166449003459855e-06
3376.9	7.908006432435062e-06
3375.0	3.8035183470591066e-06
3373.1	1.2721017494273963e-06
3371.1	2.103615808196472e-06
3369.2	2.6575702938453155e-06
3367.3	1.1418254471029648e-06
3365.3	1.0305686857365448e-06
3363.4	3.3698942546659375e-06
3361.5	4.6215925149846424e-06
3359.6	1.8137322742556278e-06
3357.6	-2.360430778227181e-06
3355.7	-6.289664246381769e-06
3353.8	-9.120013644559245e-06
3351.8	-3.1772915549924563e-06
3349.9	7.3204765849617325e-06
3348.0	1.054966132254761e-05
3346.1	9.609171093026644e-06
3344.1	9.955216607377795e-06
3342.2	8.191194386238473e-06
3340.3	3.554173773207914e-06
3338.3	2.048594123093399e-06
3336.4	5.12050095024608e-06
3334.5	1.0251941913162112e-05
3332.6	1.7454173773207913e-05
3330.6	1.950024365284341e-05
3328.7	1.2069918619950286e-05
3326.8	6.048569757809062e-06
3324.8	8.70361580819647e-06
3322.9	1.5404731738219364e-05
3321.0	2.1460918083914015e-05
3319.1	2.385082598313921e-05
3317.1	2.1166570829881573e-05
3315.2	1.5063198674528524e-05
3313.3	7.985663466692642e-06
3311.3	4.313756639539988e-06
3309.4	9.058710589152563e-06
3307.5	1.756208274450561e-05
3305.6	1.8938477657034233e-05
3303.6	1.0415988499585769e-05
3301.7	-3.908191608598593e-08
3299.8	-2.863802933580243e-06
3297.8	3.482266946055252e-06
3295.9	1.0828336825690737e-05
3294.0	1.3677778860679291e-05
3292.1	1.5453057843185017e-05
3290.1	1.4486755031431206e-05
3288.2	9.448545392524716e-06
3286.3	8.326080600360602e-06
3284.3	1.0785639101408296e-05
3282.4	9.708103893572425e-06
3280.5	1.0539569221772814e-05
3278.6	1.4349710053116308e-05
3276.6	8.935105501681184e-06
3274.7	-3.685151795721476e-06
3272.8	-9.750338677452395e-06
3270.8	-5.4581989181814e-06
3268.9	5.080010720725101e-06
3267.0	1.2348545392524726e-05
3265.1	1.4550777252570527e-05
3263.1	1.5628288095122066e-05
3261.2	1.2926031869791916e-05
3259.3	7.174333609473213e-06
3257.3	6.993426246284283e-06
3255.4	9.984450075532376e-06
3253.5	7.515915403732747e-06
3251.6	1.93426246284284e-07
3249.6	-5.250411773305407e-06
3247.7	-8.949295843282501e-06
3245.8	-1.1604341893669903e-05
3243.8	-9.963876029433272e-06
3241.9	-5.007689683738628e-06
3240.0	-1.811061839091668e-06
3238.1	-1.5998294430096059e-06
3236.1	-5.26724818478633e-06
3234.2	-1.1338039081916094e-05
3232.3	-1.1133550996540139e-05
3230.3	-3.5110862043760154e-06
3228.4	4.4551922420934605e-06
3226.5	9.865284342868273e-06
3224.6	1.1213586082549578e-05
3222.6	5.730446859314841e-06
3220.7	-1.989761707519132e-06
3218.8	-3.852667998635556e-06
3216.8	7.158910384484244e-07
3214.9	7.664217143414052e-06
3213.0	1.4786681935578173e-05
3211.1	1.65024024170362e-05
3209.1	9.099030261683146e-06
3207.2	1.223751279177417e-06
3205.3	-2.109970274353114e-06
3203.3	-9.072925296038216e-06
3201.4	-1.9040368403099263e-05
3199.5	-2.0897670678816828e-05
3197.6	-1.3678553676721414e-05
3195.6	-7.5279957117099635e-06
3193.7	-5.034764387700408e-06
3191.8	-3.869626236538183e-06
3189.8	-7.323580722187029e-06
3187.9	-1.5743813654305344e-05
3186.0	-2.396853467179962e-05
3184.1	-2.583706934359924e-05
3182.1	-2.281346425612787e-05
3180.2	-1.9531440962916037e-05
3178.3	-1.626290629111642e-05
3176.3	-1.3103372155353053e-05
3174.4	-1.2898908435261437e-05
3172.5	-1.8419141367379758e-05
3170.6	-2.730225622533015e-05
3168.6	-3.283255689293894e-05
3166.7	-3.175839384045612e-05
3164.8	-2.9093255689293896e-05
3162.8	-2.9162955021685103e-05
3160.9	-2.64146532820038e-05
3159.0	-1.979330441986258e-05
3157.1	-1.6236002144145018e-05
3155.1	-1.6174187417767162e-05
3153.2	-1.240786024072901e-05
3151.3	-6.32920910287023e-06
3149.3	-6.671955557721356e-06
3147.4	-1.1855143511524778e-05
3145.5	-1.4040538960089663e-05
3143.6	-1.058209638906486e-05
3141.6	-3.78544417913357e-06
3139.7	-2.04946640027289e-06
3137.8	-1.1377559573120218e-05
3135.8	-2.4302304955898833e-05
3133.9	-2.6998957165830117e-05
3132.0	-1.9647283270795767e-05
3130.1	-1.3334910579406454e-05
3128.1	-1.1715769212026701e-05
3126.2	-9.659558501047707e-06
3124.3	-7.346069879635495e-06
3122.3	-6.8528141903416015e-06
3120.4	-9.401140295307246e-06
3118.5	-1.4677559573120217e-05
3116.6	-1.8042722089566785e-05
3114.6	-2.06516982603187e-05
3112.7	-2.6218001072072507e-05
3110.8	-2.7193304419862577e-05
3108.8	-1.8202304955898834e-05
3106.9	-8.941630524828222e-06
3105.0	-1.0102304955898833e-05
3103.1	-2.1054003216217533e-05
3101.1	-3.2255143511524776e-05
3099.2	-3.585514351152478e-05
3097.3	-2.9867491837629743e-05
3095.3	-1.8556259441547682e-05
3093.4	-9.50121339116027e-06
3091.5	-7.588840699770966e-06
3089.6	-9.010165196627841e-06
3087.6	-5.876443643097313e-06
3085.7	1.359290482919953e-07
3083.8	4.943716193167979e-07
3081.8	-3.7752789825057264e-06
3079.9	-4.560674431070611e-06
3078.0	-2.316885142049607e-06
3076.1	-4.855119146240434e-06
3074.1	-1.3586584474440814e-05
3072.2	-2.0748374835534328e-05
3070.3	-2.3764095316992348e-05
3068.3	-2.3234861848837775e-05
3066.4	-1.7786535743872133e-05
3064.5	-1.3056210710978994e-05
3062.6	-1.1739374299498074e-05
3060.6	-8.82814190341601e-06
3058.7	-7.583187953803418e-06
3056.8	-1.374946640027289e-05
3054.8	-1.958653574387213e-05
3052.9	-1.4350582330295794e-05
3051.0	-2.144978314896933e-06
3049.1	2.695463184055359e-06
3047.1	-2.195536279908385e-06
3045.2	-6.375303347790068e-06
3043.3	-5.887676039179376e-06
3041.3	-2.5607231616392926e-06
3039.4	2.1300131572537373e-08
3037.5	-5.314896934847211e-07
3035.6	-2.5836947517177686e-08
3033.6	4.256210710978996e-06
3031.7	6.54946640027289e-06
3029.8	4.728093172847327e-06
3027.8	3.4280688075629867e-06
3025.9	2.4718824618683305e-06
3024.0	1.475254617221384e-06
3022.1	7.538185273622144e-06
3020.1	1.998090736318893e-05
3018.2	2.4238234004190825e-05
3016.3	1.604946640027289e-05
3014.3	7.712372691389308e-06
3012.4	7.5483261049656456e-06
3010.5	9.689907899225184e-06
3008.6	9.385419813849226e-06
3006.6	1.1114628916719456e-05
3004.7	1.6541581794259538e-05
3002.8	2.198876760391794e-05
3000.8	2.3716860776765266e-05
2998.9	1.8816860776765266e-05
2997.0	1.1713488621412211e-05
2995.1	1.1313488621412211e-05
2993.1	1.7946069879635495e-05
2991.2	2.5914604551435117e-05
2989.3	2.8396627844646943e-05
2987.3	2.4124721017494273e-05
2985.4	2.005730227571756e-05
2983.5	1.976627844646947e-05
2981.6	2.0874138687198482e-05
2979.6	2.363706934359924e-05
2977.7	2.7896627844646944e-05
2975.8	3.3016860776765265e-05
2973.8	4.109665220993129e-05
2971.9	5.029216412455533e-05
2970.0	5.410339652063739e-05
2968.1	4.961239705667365e-05
2966.1	4.350456118122898e-05
2964.2	4.216525997758393e-05
2962.3	4.3807957701866374e-05
2960.3	4.81719799230057e-05
2958.4	5.4825885678085855e-05
2956.5	5.669442034988549e-05
2954.6	4.989107255981677e-05
2952.6	4.3595585010477064e-05
2950.7	4.813602650942935e-05
2948.8	5.875174699088738e-05
2946.8	6.311579357731105e-05
2944.9	5.628658447444081e-05
2943.0	4.43776083036889e-05
2941.1	3.6802353686467515e-05
2939.1	3.943158715462209e-05
2937.2	5.067202865357438e-05
2935.3	6.0450655426148826e-05
2933.3	6.26776083036889e-05
2931.4	6.48236781833244e-05
2929.5	7.046863213293698e-05
2927.6	7.323830710004385e-05
2925.6	7.342033039325568e-05
2923.7	7.223942303006676e-05
2921.8	6.943830710004386e-05
2919.8	6.712598313922324e-05
2917.9	6.558445007553237e-05
2916.0	6.276535743872131e-05
2914.1	6.287993762487206e-05
2912.1	6.65596803274694e-05
2910.2	6.893270308464498e-05
2908.3	6.865405194678622e-05
2906.3	6.557314458359728e-05
2904.4	6.523719117002095e-05
2902.5	7.289563374104575e-05
2900.6	7.724619170605721e-05
2898.6	7.072370254860873e-05
2896.7	6.105739973685493e-05
2894.8	5.531919009794845e-05
2892.8	5.546414404756104e-05
2890.9	5.9666424638175515e-05
2889.0	6.437430924418887e-05
2887.1	6.623609960528239e-05
2885.1	6.337991325958774e-05
2883.2	6.0669796793528575e-05
2881.3	6.145854003216217e-05
2879.3	6.107200428829003e-05
2877.4	5.859898153111446e-05
2875.5	5.896079625749232e-05
2873.6	6.396865649822133e-05
2871.6	6.987988889430339e-05
2869.7	7.30383314653282e-05
2867.8	7.464733200136445e-05
2865.8	7.73518200867404e-05
2863.9	8.047877296428048e-05
2862.0	8.02338190146679e-05
2860.1	7.756302811753813e-05
2858.1	7.797651673895035e-05
2856.2	8.168888943033965e-05
2854.3	8.401586667316406e-05
2852.3	8.172261098387019e-05
2850.4	7.481137858778811e-05
2848.5	6.439565810633009e-05
2846.6	5.8945100141318644e-05
2844.6	6.513947176063544e-05
2842.7	7.513721553530528e-05
2840.8	7.879677403635301e-05
2838.8	7.55945421763072e-05
2836.9	7.094061205594268e-05
2835.0	7.056982115881291e-05
2833.1	7.263386774523658e-05
2831.1	7.605858876273085e-05
2829.2	8.182823936455338e-05
2827.3	8.475968032746942e-05
2825.3	7.962258661858584e-05
2823.4	7.140909799717362e-05
2821.5	6.80933775157156e-05
2819.6	6.971249451781102e-05
2817.6	7.166419277812972e-05
2815.7	7.220803079771939e-05
2813.8	7.464849666195604e-05
2811.8	7.800917109302663e-05
2809.9	7.614175235124993e-05
2808.0	7.04721017494274e-05
2806.1	6.770693923298084e-05
2804.1	7.039231031626137e-05
2802.2	7.771026265776521e-05
2800.3	8.368554164027095e-05
2798.3	8.07630768481068e-05
2796.4	7.232149505384727e-05
2794.5	6.514170362068126e-05
2792.6	5.9063052482822464e-05
2790.6	5.697991325958773e-05
2788.7	6.215519224209346e-05
2786.8	6.951586667316406e-05
2784.8	7.225407631207056e-05
2782.9	6.923835583061254e-05
2781.0	6.708442571024803e-05
2779.1	6.74035183470591e-05
2777.1	6.459340188099994e-05
2775.2	6.046982115881291e-05
2773.3	5.793838019589689e-05
2771.3	5.2474333609473216e-05
2769.4	4.6733867745236575e-05
2767.5	4.634172798596559e-05
2765.6	4.7215891038448416e-05
2763.6	4.531251888309536e-05
2761.7	4.47563325374007e-05
2759.8	4.651926319380147e-05
2757.8	4.866647336874421e-05
2755.9	5.452265971443886e-05
2754.0	6.342377564446175e-05
2752.1	6.652151941913162e-05
2750.1	6.301477510842551e-05
2748.2	5.90136591784026e-05
2746.3	5.720579893767359e-05
2744.3	5.7693426246284286e-05
2742.4	5.902486720920032e-05
2740.5	5.8660820622776665e-05
2738.6	5.661477510842551e-05
2736.6	5.454063642122702e-05
2734.7	5.2740636421227025e-05
2732.8	5.5932776180498013e-05
2730.8	6.214514887188733e-05
2728.9	6.0299078992251826e-05
2727.0	5.2608055163003744e-05
2725.1	4.803726426587397e-05
2723.1	4.654849666195604e-05
2721.2	4.5911402953072454e-05
2719.3	4.477430924418887e-05
2717.3	4.431026265776521e-05
2715.4	4.867768139954193e-05
2713.5	5.433835583061254e-05
2711.6	5.30563325374007e-05
2709.6	4.724284391598849e-05
2707.7	4.4340587690658344e-05
2705.8	4.4355192242093465e-05
2703.8	4.5432727449929336e-05
2701.9	4.685184445202474e-05
2700.0	4.6992310316261375e-05
2698.1	4.6769845524097256e-05
2696.1	5.049793869694459e-05
2694.2	5.666198528336825e-05
2692.3	5.634512450660299e-05
2690.3	5.0278821694849175e-05
2688.4	4.768668193557817e-05
2686.5	5.17069148676965e-05
2684.6	5.73653574387213e-05
2682.6	5.943614833585107e-05
2680.7	5.816984552409726e-05
2678.8	5.719679840163734e-05
2676.8	5.550128648701329e-05
2674.9	5.0278821694849175e-05
2673.0	4.53192875590858e-05
2671.1	4.474963695726328e-05
2669.1	4.7881102285463666e-05
2667.2	5.304514887188733e-05
2665.3	5.436649773402854e-05
2663.3	5.0992334681545724e-05
2661.4	5.442603186979191e-05
2659.5	6.419905462696749e-05
2657.6	6.796533307343696e-05
2655.6	6.455970469275375e-05
2653.7	5.947542517421178e-05
2651.8	5.436642463817552e-05
2649.8	5.079002972564689e-05
2647.9	5.016421714341405e-05
2646.0	5.010131085229764e-05
2644.1	4.9052984747331995e-05
2642.1	4.719005409093123e-05
2640.2	4.647770576482627e-05
2638.3	4.9383334145509464e-05
2636.3	5.3920403489108714e-05
2634.4	5.467319331416597e-05
2632.5	5.3900146191706055e-05
2630.6	5.56978899663759e-05
2628.6	5.6961936552799566e-05
2626.7	5.548779786560108e-05
2624.8	5.6013659178402604e-05
2622.8	5.833726426587397e-05
2620.9	5.7104683007650695e-05
2619.0	5.409568247161442e-05
2617.1	5.413049558988353e-05
2615.1	5.4251844452024745e-05
2613.2	5.2123775644461754e-05
2611.3	5.070356707762779e-05
2609.3	4.924063642122702e-05
2607.4	4.753723990058963e-05
2605.5	4.872935529457628e-05
2603.6	5.255519224209346e-05
2601.6	5.464733200136445e-05
2599.7	5.588442571024803e-05
2597.8	5.750017055699039e-05
2595.8	5.613275181521367e-05
2593.9	5.3566449003459855e-05
2592.0	5.516870522879001e-05
2590.1	5.752714779981481e-05
2588.1	5.662040348910871e-05
2586.2	5.409342624628428e-05
2584.3	5.3502402417036194e-05
2582.3	5.3747332001364455e-05
2580.4	4.854844793138736e-05
2578.5	3.915968032746942e-05
2576.6	3.5616982603186973e-05
2574.6	3.7902378051751854e-05
2572.7	3.942372691389308e-05
2570.8	4.03911456556698e-05
2568.8	4.443047122459918e-05
2566.9	5.191023829248086e-05
2565.0	5.7028214999269036e-05
2563.1	5.61978899663759e-05
2561.1	5.459340188099995e-05
2559.2	5.654844793138736e-05
2557.3	5.885405194678622e-05
2555.3	5.731921446323278e-05
2553.4	5.315854003216217e-05
2551.5	4.87338190146679e-05
2549.6	4.5677632668973244e-05
2547.6	4.521470201257248e-05
2545.7	4.6043911115442715e-05
2543.8	4.669223722040836e-05
2541.8	5.13394473953511e-05
2539.9	5.811698260318698e-05
2538.0	5.6039447395351096e-05
2536.1	4.740460991179767e-05
2534.1	4.380349398177476e-05
2532.2	4.5537215535305296e-05
2530.3	4.827879732956483e-05
2528.3	5.050800643243506e-05
2526.4	4.9403493981774764e-05
2524.5	4.5140563325373996e-05
2522.6	4.0986633205009494e-05
2520.6	4.012258661858583e-05
2518.7	4.3673144583597285e-05
2516.8	4.842819063398469e-05
2514.8	4.951018956191218e-05
2512.9	4.969781687052287e-05
2511.0	5.058884069977097e-05
2509.1	4.855065542614882e-05
2507.1	4.291358608254958e-05
2505.2	3.706640027289118e-05
2503.3	3.5098981531114464e-05
2501.3	3.591132985721943e-05
2499.4	3.638772476974806e-05
2497.5	3.7480980459041945e-05
2495.6	3.894951513084157e-05
2493.6	3.785400321621753e-05
2491.7	3.77787242337118e-05
2489.8	4.280570147653622e-05
2487.8	4.5702329321183175e-05
2485.9	4.319781687052287e-05
2484.0	4.308432824911066e-05
2482.1	4.6822537888017154e-05
2480.1	4.82730958530286e-05
2478.2	4.6331514058769064e-05
2476.3	4.281353735198089e-05
2474.3	4.0906793041274784e-05
2472.4	4.262362945275572e-05
2470.5	4.235395448564884e-05
2468.6	3.611800107207251e-05
2466.6	3.0103396520637396e-05
2464.7	3.3427001608108764e-05
2462.8	4.168207202378052e-05
2460.8	4.2878699868427465e-05
2458.9	3.909442034988548e-05
2457.0	3.891239705667365e-05
2455.1	4.1307908971297695e-05
2453.1	4.055060669558014e-05
2451.2	3.992588567808586e-05
2449.3	4.5247234540227086e-05
2447.3	5.039442034988548e-05
2445.4	4.780788460601335e-05
2443.5	4.0864046586423664e-05
2441.6	3.582472101749427e-05
2439.6	3.225955850104771e-05
2437.7	2.7570790897129772e-05
2435.8	2.371123239608206e-05
2433.8	2.338651137858779e-05
2431.9	2.608202329321183e-05
2430.0	2.897304712245992e-05
2428.1	3.058990789922518e-05
2426.1	3.0459558501047704e-05
2424.2	2.7530325032893133e-05
2422.3	2.5688743238633594e-05
2420.3	2.6170766531845425e-05
2418.4	2.8030325032893135e-05
2416.5	3.394944203498855e-05
2414.6	3.892248915744847e-05
2412.6	3.514495394961258e-05
2410.7	2.8212348326104966e-05
2408.8	2.7828068807562992e-05
2406.8	3.082358072218703e-05
2404.9	3.178202329321184e-05
2403.0	2.9929233468154573e-05
2401.1	2.768541981384923e-05
2399.1	2.8238209638906488e-05
2397.2	3.0931440962916036e-05
2395.3	2.8629184737585885e-05
2393.3	2.0464022221139323e-05
2391.4	1.7210092100774814e-05
2389.5	2.321795234150383e-05
2387.6	2.867974270259734e-05
2385.6	2.8780858632620244e-05
2383.7	2.732355635690269e-05
2381.8	2.5480882997904585e-05
2379.8	2.179439598460114e-05
2377.9	1.9418001072072508e-05
2376.0	2.152137322742556e-05
2374.1	2.3658466936309147e-05
2372.1	1.9603445251206078e-05
2370.2	1.019786560109156e-05
2368.3	1.8158666731640673e-06
2366.3	-5.593109497587848e-06
2364.4	-1.3995341357633651e-05
2362.5	-1.601780614979778e-05
2360.6	-1.1962760099410372e-05
2358.6	-9.697597582963804e-06
2356.7	-8.404341893669906e-06
2354.8	-4.617854880366461e-06
2352.8	-1.2015983626529043e-07
2350.9	1.3157448467423606e-06
2349.0	5.236050874713707e-07
2347.1	1.8011646605915872e-06
2345.1	5.778724233711803e-06
2343.2	5.629306564007598e-06
2341.3	1.0630281175381235e-06
2339.3	1.1315627893377458e-06
2337.4	5.302329321183173e-06
2335.5	5.764119682276687e-06
2333.6	3.1416548901125635e-06
2331.6	1.334910579406454e-06
2329.7	9.049266604938254e-09
2327.8	-3.1569611617367743e-07
2325.8	4.0797914331660244e-06
2323.9	1.1267418741776716e-05
2322.0	1.4869650601822524e-05
2320.1	1.2813464256127869e-05
2318.1	6.642673358998101e-06
2316.2	1.2696262365381823e-06
2314.3	1.2291603723015503e-06
2312.3	5.45611324984163e-06
2310.4	9.014531455582093e-06
2308.5	1.0404414989522937e-05
2306.6	1.0820135470980948e-05
2304.6	9.358320744603092e-06
2302.7	6.3706690707080625e-06
2300.8	4.316738950343556e-06
2298.8	4.493158228156528e-06
2296.9	6.885297987427522e-06
2295.0	9.694274158179437e-06
2293.1	9.494274158179432e-06
2291.1	7.538112177769123e-06
2289.2	8.01901954095805e-06
2287.3	7.798786608839726e-06
2285.3	5.3223673310267555e-06
2283.4	7.5279713464256135e-06
2281.5	1.3005506554261497e-05
2279.6	1.219092636811072e-05
2277.6	1.2673456459236937e-06
2275.7	-1.1895585010477066e-05
2273.8	-1.550009746113737e-05
2271.8	-1.0181004824326292e-05
2269.9	-5.091121290385453e-06
2268.0	-2.342819550704152e-06
2266.1	-1.3877735003167375e-06
2264.1	-1.274284878904529e-06
2262.2	2.605526046489036e-07
2260.3	2.9189708103893617e-06
2258.3	1.0672725500706625e-06
2256.4	-7.049588226694594e-06
2254.5	-1.403835583061254e-05
2252.6	-1.8152960382047653e-05
2250.6	-2.1975425174211775e-05
2248.7	-2.3864192778129716e-05
2246.8	-2.3222635349154512e-05
2244.8	-2.1193426246284283e-05
2242.9	-1.8892285950977047e-05
2241.0	-1.976642463817552e-05
2239.1	-2.41461917060572e-05
2237.1	-2.9096749671068655e-05
2235.2	-3.1393377515715604e-05
2233.3	-2.972147068856293e-05
2231.3	-2.9305750207104912e-05
2229.4	-3.200014619170605e-05
2227.5	-3.290689050241215e-05
2225.6	-3.240575020710491e-05
2223.6	-3.286977242824424e-05
2221.7	-3.1346167340772865e-05
2219.8	-2.842707470396179e-05
2217.8	-2.77933775157156e-05
2215.9	-2.8054051946786214e-05
2214.0	-2.4794493445738504e-05
2212.1	-1.9309097997173616e-05
2210.1	-1.9496749671068656e-05
2208.2	-2.5549563861410256e-05
2206.3	-2.9965284342868273e-05
2204.3	-3.284730763608011e-05
2202.4	-3.6865308708152615e-05
2200.5	-3.7140612055942685e-05
2198.6	-3.528668193557818e-05
2196.6	-3.5051844452024746e-05
2194.7	-3.235184445202474e-05
2192.8	-2.9854100677354893e-05
2190.8	-3.124175235124994e-05
2188.9	-3.135524097266214e-05
2187.0	-3.064512450660299e-05
2185.1	-3.213723990058963e-05
2183.1	-3.5868680863505674e-05
2181.2	-3.9194517811022845e-05
2179.3	-4.064058769065834e-05
2177.3	-4.0564192778129716e-05
2175.4	-3.828779786560108e-05
2173.5	-3.46563325374007e-05
2171.6	-3.320800643243506e-05
2169.6	-3.459451781102285e-05
2167.7	-3.705182008674041e-05
2165.8	-3.8656308172116356e-05
2163.8	-3.633270308464499e-05
2161.9	-3.175854003216217e-05
2160.0	-2.974616734077286e-05
2158.1	-3.06708639929828e-05
2156.1	-3.136074752692363e-05
2154.2	-3.2857399736854925e-05
2152.3	-3.957877296428048e-05
2150.3	-4.840349398177476e-05
2148.4	-4.9120330393255686e-05
2146.5	-4.4172004288290036e-05
2144.6	-4.096751620291409e-05
2142.6	-3.8179888894303394e-05
2140.7	-3.6325958773938885e-05
2138.8	-3.978549290970225e-05
2136.8	-4.776974806295989e-05
2134.9	-5.52293065640076e-05
2133.0	-5.614505141074995e-05
2131.1	-5.016640027289118e-05
2129.1	-4.491132985721943e-05
2127.2	-4.25719799230057e-05
2125.3	-4.102139759270991e-05
2123.3	-4.092814190341601e-05
2121.4	-4.061467764728814e-05
2119.5	-3.8763003752253785e-05
2117.6	-3.869221285512401e-05
2115.6	-3.939107255981677e-05
2113.7	-4.01157692120267e-05
2111.8	-4.306069879635495e-05
2109.8	-4.482362945275571e-05
2107.9	-4.1780956093757614e-05
2106.0	-3.855511914624043e-05
2104.1	-4.026072316163929e-05
2102.1	-4.361914136737976e-05
2100.2	-4.3004536815944646e-05
2098.3	-4.0233745918814873e-05
2096.3	-4.2625861312801523e-05
2094.4	-5.0417952341503836e-05
2092.5	-6.31155986550363e-05
2090.6	-9.041426343745434e-05
2088.6	-0.00013024543638224262
2086.7	-0.00015419131133960338
2084.8	-0.000141772267433361
2082.8	-0.00010970395204912045
2080.9	-8.817270600847913e-05
2079.0	-9.093352663125578e-05
2077.1	-0.00011481115930022904
2075.1	-0.00014529662784464693
2073.2	-0.00016554835047024997
2071.3	-0.00016542139759270988
2069.3	-0.00014373714243945228
2067.4	-0.00011087423614833585
2065.5	-7.96832366843721e-05
2063.6	-4.9436050874713695e-05
2061.6	-1.3102329321183175e-05
2059.7	2.3158369475171775e-05
2057.8	4.893478875298475e-05
2055.8	6.531232396082063e-05
2053.9	7.881346425612786e-05
2052.0	9.224158179425954e-05
2050.1	0.00010409216412455533
2048.1	0.0001130168851420496
2046.2	0.00012130002436528433
2044.3	0.00012882137322742555
2042.3	0.00013069779250523853
2040.4	0.00012814611861020417
2038.5	0.00012675397885093318
2036.6	0.00012483711807416794
2034.6	0.00012190116466059158
2032.7	0.00012281128112665073
2030.8	0.00012388656010915648
2028.8	0.00011946969933239122
2026.9	0.00011299890843526145
2025.0	0.00010782700160810877
2023.1	0.00010232925783343891
2021.1	9.604051459480531e-05
2019.2	9.16427951854198e-05
2017.3	8.965516787680911e-05
2015.3	8.739446908045415e-05
2013.4	8.111579357731104e-05
2011.5	7.377646800838165e-05
2009.6	7.104388675015836e-05
2007.6	7.29584913015935e-05
2005.7	7.571579357731104e-05
2003.8	7.58787242337118e-05
2001.8	7.382481847863163e-05
1999.9	7.290349398177476e-05
1998.0	7.194393548072705e-05
1996.1	6.936302811753813e-05
1994.1	6.607768139954193e-05
1992.2	6.44777301301106e-05
1990.3	6.812040348910871e-05
1988.3	7.461698260318697e-05
1986.4	7.580009746113737e-05
1984.5	7.079221285512401e-05
1982.6	6.435063106086447e-05
1980.6	5.6837142439452274e-05
1978.7	4.807535207835874e-05
1976.8	4.129672530578432e-05
1974.8	4.0040563325374e-05
1972.9	4.2425958773938885e-05
1971.0	4.245630817211636e-05
1969.1	4.126533307343696e-05
1967.1	4.2538380195896885e-05
1965.2	4.3240587690658344e-05
1963.3	4.209223722040836e-05
1961.4	4.0834934944690795e-05
1959.4	3.973044685931484e-05
1957.5	3.809112129038545e-05
1955.6	3.47416792553969e-05
1953.6	2.940009746113737e-05
1951.7	2.4243911115442713e-05
1949.8	2.1089980995078208e-05
1947.9	2.1370912723551476e-05
1945.9	2.487212611471175e-05
1944.0	2.7467735490473158e-05
1942.1	2.7308176989425452e-05
1940.1	2.5465357438721302e-05
1938.2	2.1311329857219426e-05
1936.3	1.6357375371570584e-05
1934.4	1.5024794113347297e-05
1932.4	1.4263003752253786e-05
1930.5	8.568632132936985e-06
1928.6	1.1021392719652481e-07
1926.6	-5.384133326835938e-06
1924.7	-2.9829199356756636e-06
1922.8	5.522781540860558e-06
1920.9	1.44812972077384e-05
1918.9	1.9093767360265067e-05
1917.0	1.54555089907899e-05
1915.1	6.44405730714876e-06
1913.1	-3.211110569660358e-06
1911.2	-1.2082993031528687e-05
1909.3	-1.813578285658594e-05
1907.4	-2.0202110033624103e-05
1905.4	-2.3010019004921797e-05
1903.5	-2.911341552555919e-05
1901.6	-3.515499731981873e-05
1899.6	-3.85212757662882e-05
1897.7	-4.226280882997906e-05
1895.8	-4.8311086204376e-05
1893.9	-5.436950441011648e-05
1891.9	-5.709080454168902e-05
1890.0	-5.8427825154719565e-05
1888.1	-6.800431752838558e-05
1886.1	-8.956741874177672e-05
1884.2	-0.00011767879732956485
1882.3	-0.00014355642999853806
1880.4	-0.00015948682812728422
1878.4	-0.000163057619024414
1876.5	-0.0001543688270552117
1874.6	-0.0001362418010818186
1872.6	-0.00011570562838068321
1870.7	-9.646365674187418e-05
1868.8	-8.164657667754981e-05
1866.9	-7.195011938989329e-05
1864.9	-6.209982944300963e-05
1863.0	-5.128420642268896e-05
1861.1	-4.236285756054773e-05
1859.1	-3.4296554748793924e-05
1857.2	-2.8979718337313e-05
1855.3	-2.8588743238633597e-05
1853.4	-3.143932556892939e-05
1851.4	-3.342244042687978e-05
1849.5	-2.926950441011648e-05
1847.6	-1.8163534915452463e-05
1845.6	-3.3562789337752334e-06
1843.7	4.093236197066371e-06
1841.8	1.2646313532478734e-06
1839.9	-1.0762487208225915e-06
1837.9	-4.870717801276745e-06
1836.0	-1.4903299059500023e-05
1834.1	-2.0716690219774872e-05
1832.1	-1.5016373471078451e-05
1830.2	-6.772267433361015e-06
1828.3	-4.232966229715957e-06
1826.4	-6.6645533843380305e-06
1824.4	-1.5931002387797893e-05
1822.5	-3.031103747380733e-05
1820.6	-3.771232396082063e-05
1818.6	-3.538537108328054e-05
1816.7	-3.2960650065786265e-05
1814.8	-3.5696579114078264e-05
1812.9	-3.977287656546953e-05
1810.9	-4.281998927927489e-05
1809.0	-4.8135782856585946e-05
1807.1	-5.566397349057064e-05
1805.1	-6.061562302032065e-05
1803.2	-6.131091564738564e-05
1801.3	-6.134667413868725e-05
1799.4	-6.417030359144292e-05
1797.4	-6.689849422542764e-05
1795.5	-6.132406315481704e-05
1793.6	-4.814036353004245e-05
1791.6	-4.690998976658074e-05
1789.7	-6.337350518980563e-05
1787.8	-7.641773305394476e-05
1785.9	-7.899524389649631e-05
1783.9	-8.308959115052876e-05
1782.0	-9.030987281321575e-05
1780.1	-9.466387602943325e-05
1778.1	-9.487401686077677e-05
1776.2	-8.635793090005364e-05
1774.3	-6.813684518298333e-05
1772.4	-5.985314555820878e-05
1770.4	-7.20815311144682e-05
1768.5	-8.7630441986258e-05
1766.6	-9.909046342770827e-05
1764.6	-0.00010224563130451734
1762.7	-9.402066663417963e-05
1760.8	-8.966894400857663e-05
1758.9	-9.270057989376737e-05
1756.9	-9.601639783636278e-05
1755.0	-9.506353491545246e-05
1753.1	-8.333949125286294e-05
1751.1	-7.253674772184603e-05
1749.2	-7.905935870571626e-05
1747.3	-9.067896301349839e-05
1745.4	-9.331746503581698e-05
1743.4	-9.29432532527655e-05
1741.5	-9.334182057404612e-05
1739.6	-9.257648750060917e-05
1737.6	-8.03727985965597e-05
1735.7	-4.8860445397397854e-05
1733.8	-3.467106866137152e-05
1731.9	-6.397886067930421e-05
1729.9	-9.86408752010136e-05
1728.0	-0.00011218306612738172
1726.1	-0.00011453379464938355
1724.1	-0.00011584611861020417
1722.2	-0.00011099410360118903
1720.3	-8.371098387018186e-05
1718.4	-4.5160201744554474e-05
1716.4	-3.4279245650797137e-05
1714.5	-5.439955655182498e-05
1712.6	-7.24410944885727e-05
1710.6	-6.943248379708592e-05
1708.7	-4.235812582232836e-05
1706.8	5.109707129282153e-06
1704.9	6.505956337410452e-05
1702.9	0.00014402133424297052
1701.0	0.00023205428585351576
1699.1	0.00029489521465815474
1697.1	0.00033590615467082483
1695.2	0.0003559839286584473
1693.3	0.00034572278641391735
1691.4	0.00033686448516154183
1689.4	0.0003471747234540227
1687.5	0.00037970961454120156
1685.6	0.0004216764582622678
1683.6	0.0004154956239949318
1681.7	0.0003579153160177379
1679.8	0.00031133547098094634
1677.9	0.00030064347741338136
1675.9	0.0002979047366112762
1674.0	0.00027303401880999947
1672.1	0.00023949687637054716
1670.1	0.00021250937088835824
1668.2	0.00017766742361483354
1666.3	0.0001440499537059597
1664.4	0.00013156904634277077
1662.4	0.00012031521368354367
1660.5	9.472050095024609e-05
1658.6	7.92979386969446e-05
1656.6	0.00010844314117245736
1654.7	0.00017497061546708223
1652.8	0.0001962784318502997
1650.9	0.00014262264996832495
1648.9	0.00010130544320452212
1647.0	0.00010199421080843999
1645.1	9.487574679596509e-05
1643.1	7.653197699917154e-05
1641.2	7.31742117830515e-05
1639.3	9.182872667024022e-05
1637.4	0.00012352667024024167
1635.4	0.00013504743920861545
1633.5	0.00011129020515569406
1631.6	8.720929291944837e-05
1629.6	7.810798206715072e-05
1627.7	6.549245650796743e-05
1625.8	4.881632961356657e-05
1623.9	3.4476083036889e-05
1621.9	1.867254032454555e-05
1620.0	1.8090663223039786e-05
1618.1	4.39915647385605e-05
1616.1	5.381199259295354e-05
1614.2	2.5213201111056903e-05
1612.3	-3.66853467179962e-06
1610.4	-1.576640027289118e-05
1608.4	-2.866972369767555e-05
1606.5	-4.8886608839725156e-05
1604.6	-6.799674967106865e-05
1602.6	-8.252147068856292e-05
1600.7	-9.550689050241216e-05
1598.8	-0.00010700579893767358
1596.9	-0.00011771703133375567
1594.9	-0.00012815184445202476
1593.0	-0.00013870465864236633
1591.1	-0.0001543721017494274
1589.1	-0.0001700350567711125
1587.2	-0.00017222384874031479
1585.3	-0.00016368677939671553
1583.4	-0.00015443733736172699
1581.4	-0.00014471363481311826
1579.5	-0.0001220825788216949
1577.6	-8.422847327128321e-05
1575.6	-6.430343550509253e-05
1573.7	-6.937629257833445e-05
1571.8	-6.194300959992205e-05
1569.9	-5.165179084839927e-05
1567.9	-6.970145217094687e-05
1566.0	-9.762542273768333e-05
1564.1	-0.00010271384922762053
1562.1	-6.488276399785602e-05
1560.2	-7.204902295210357e-06
1558.3	0.0
1556.4	-4.8378319769991915e-05
1554.4	-9.262837581014579e-05
1552.5	-0.00011325285804785346
1550.6	-0.00011815780907363196
1548.6	-0.00011372418498123875
1546.7	-0.00010297995711709958
1544.8	-7.999242239656947e-05
1542.9	-4.1005443204522444e-05
1540.9	-5.068100969738429e-06
1539.0	-1.742363432581293e-05
1537.1	-7.011095463184056e-05
1535.1	-0.00010363788801715315
1533.2	-0.00011460775790653481
1531.3	-0.00012743844841869306
1529.4	-0.00013291833731299645
1527.4	-0.00012241229472247946
1525.5	-0.00010315661517469919
1523.6	-7.686471419521474e-05
1521.6	-6.042361483358518e-05
1519.7	-7.108021538911372e-05
1517.8	-8.878672092003335e-05
1515.9	-9.760530675892996e-05
1513.9	-0.00010057867063008633
1512.0	-9.395385215145468e-05
1510.1	-6.592366843721076e-05
1508.1	-2.0765825252180782e-05
1506.2	-9.890107694557077e-06
1504.3	-5.394346279421103e-05
1502.4	-9.344732712830765e-05
1500.4	-9.232607572730379e-05
1498.5	-7.082985721943379e-05
1496.6	-6.049366015301407e-05
1494.6	-7.456840797232108e-05
1492.7	-8.725868135081141e-05
1490.8	-7.921569124311688e-05
1488.9	-7.064140636421238e-05
1486.9	-7.620251937040106e-05
1485.0	-8.397833438916234e-05
1483.1	-8.247857804200576e-05
1481.1	-7.331115930022903e-05
1479.2	-5.777726718970811e-05
1477.3	-3.176775498270069e-05
1475.4	2.344354563617605e-06
1473.4	2.7226986988938048e-05
1471.5	2.6620920033136684e-05
1469.6	2.5956990400077942e-05
1467.6	6.311960430778224e-05
1465.7	0.00011680866429511226
1463.8	0.00012936819843087567
1461.9	9.49423127527898e-05
1459.9	6.85871497490375e-05
1458.0	7.365042639247577e-05
1456.1	5.5728955703912824e-05
1454.1	-1.9395117197017837e-05
1452.2	-9.478723746406123e-05
1450.3	-0.00010775363773695238
1448.4	-7.680404951025782e-05
1446.4	-5.7187286194629905e-05
1444.5	-6.022683105111837e-05
1442.6	-6.888083426733591e-05
1440.6	-6.355582086642954e-05
1438.7	-3.081117879245659e-05
1436.8	-8.125222942351857e-06
1434.9	-2.8818965937332623e-05
1432.9	-5.4192695287754074e-05
1431.0	-5.186140051654408e-05
1429.1	-4.2719867452853196e-05
1427.1	-4.217052287900202e-05
1425.2	-3.873563666487989e-05
1423.3	-2.4672413625067055e-05
1421.4	-3.2268018127772514e-06
1419.4	1.1936616149310273e-05
1417.5	8.513712782028148e-06
1415.6	7.499780712440609e-07
1413.6	6.738355830612539e-06
1411.7	2.4954027581501873e-05
1409.8	4.716977242824423e-05
1407.9	6.586538180400564e-05
1405.9	7.661497003070024e-05
1404.0	7.828127284245404e-05
1402.1	7.22509478095609e-05
1400.1	6.189386482140244e-05
1398.2	4.554466643925733e-05
1396.3	2.636502119779738e-05
1394.4	9.841343014472907e-06
1392.4	-4.6713464256128154e-06
1390.5	-1.1315281906339848e-05
1388.6	-8.690317236002143e-06
1386.6	-1.018692071536479e-05
1384.7	-1.9716470932215803e-05
1382.8	-2.5389737342234805e-05
1380.9	-1.801894644510503e-05
1378.9	-6.851517957214709e-07
1377.0	1.8520622776667766e-05
1375.1	3.602639734905703e-05
1373.1	5.045106963598263e-05
1371.2	6.025313093903805e-05
1369.3	6.335977778860678e-05
1367.4	6.08328249110667e-05
1365.4	6.283408703279566e-05
1363.5	6.991293309292917e-05
1361.6	6.669493202085663e-05
1359.6	5.288122411188537e-05
1357.7	4.080128648701329e-05
1355.8	3.0155167876809112e-05
1353.9	1.8523678183324395e-05
1351.9	1.2821421957994243e-05
1350.0	1.111470201257248e-05
1348.1	4.097865601091562e-06
1346.1	-6.515623020320648e-06
1344.2	-1.328301739681303e-05
1342.3	-1.1916592758637495e-05
1340.4	-5.183840943423832e-06
1338.4	-2.234398908435275e-06
1336.5	-5.612080307977214e-06
1334.6	-1.1123458895765319e-05
1332.6	-1.290892744018323e-05
1330.7	-9.067394376492377e-06
1328.8	-6.629209102870231e-06
1326.9	-1.2450557965011453e-05
1324.9	-2.07943716193168e-05
1323.0	-1.9604463720091617e-05
1321.1	-4.725763851664154e-06
1319.1	1.3982145119633539e-05
1317.2	2.527540080892743e-05
1315.3	2.7993353150431263e-05
1313.4	2.225063106086448e-05
1311.4	1.0773071487744262e-05
1309.5	7.300024365284343e-06
1307.6	1.4023629452755712e-05
1305.6	1.6552838555625945e-05
1303.7	1.1813488621412212e-05
1301.8	7.002231860045808e-06
1299.9	5.816836411480922e-06
1297.9	9.022464792164125e-06
1296.0	1.5485395448564883e-05
1294.1	2.008427951854198e-05
1292.1	1.983597777886068e-05
1290.2	1.5901164660591588e-05
1288.3	1.0139374299498074e-05
1286.4	7.116885142049607e-06
1284.4	1.0412372691389307e-05
1282.5	1.2269674967106865e-05
1280.6	7.220232932118318e-06
1278.6	8.01115930022904e-07
1276.7	-6.166302811753813e-06
1274.8	-1.2279767067881681e-05
1272.9	-1.2737069343599243e-05
1270.9	-1.0493280054578238e-05
1269.0	-1.0456235076263337e-05
1267.1	-1.3766375907606836e-05
1265.1	-1.692370254860874e-05
1263.2	-1.1318074167925532e-05
1261.3	1.2763461819599472e-06
1259.4	9.701091564738563e-06
1257.4	1.1608951805467571e-05
1255.5	1.0184206422688954e-05
1253.6	5.565089420593548e-06
1251.6	3.7718337312996478e-06
1249.7	7.250484869158424e-06
1247.8	9.283066127381713e-06
1245.9	6.981950197358807e-06
1243.9	4.404439354807273e-06
1242.0	5.034788752984748e-06
1240.1	7.880858632620246e-06
1238.1	1.0156137615125972e-05
1236.2	1.1585346717996199e-05
1234.3	1.320332342478437e-05
1232.4	1.4284230787973295e-05
1230.4	1.2079742702597342e-05
1228.5	1.1662881925832074e-05
1226.6	1.9670742166561083e-05
1224.6	2.7744905219043912e-05
1222.7	2.7867370011208036e-05
1220.8	2.657297402660689e-05
1218.9	2.5617927976219483e-05
1216.9	2.5401091564738565e-05
1215.0	3.146176599580918e-05
1213.1	4.3771882461868334e-05
1211.1	5.433592904829199e-05
1209.2	5.3203323424784376e-05
1207.3	4.125948540519468e-05
1205.4	3.38269041469714e-05
1203.4	3.488983480337216e-05
1201.5	3.632467228692559e-05
1199.6	3.801118366551338e-05
1197.6	4.2423531991618344e-05
1195.7	4.586960187125384e-05
1193.8	4.492130013157254e-05
1191.9	4.009657911407826e-05
1189.9	3.3284206422688955e-05
1188.0	3.1420159836265284e-05
1186.1	4.5041533063690856e-05
1184.1	6.80494664002729e-05
1182.2	8.147088835826713e-05
1180.3	7.701018956191218e-05
1178.4	6.490671994542177e-05
1176.4	5.6162857560547736e-05
1174.5	5.1857253545148874e-05
1172.6	5.1728044442278643e-05
1170.6	5.0856137615125976e-05
1168.7	4.4696603479362606e-05
1166.8	3.950671994542176e-05
1164.9	3.8683114857950396e-05
1162.9	4.246851030651527e-05
1161.0	5.276513815116222e-05
1159.1	6.49336484576775e-05
1157.1	7.703025193704012e-05
1155.2	9.391341552555917e-05
1153.3	0.00011103930120364505
1151.4	0.00011602695287754007
1149.4	0.00010825390575508017
1147.5	0.00010410337215535306
1145.6	0.00010917535207835876
1143.6	0.00010750235368646753
1141.7	9.382365381804006e-05
1139.8	8.382020856683399e-05
1137.9	7.662244042687978e-05
1135.9	6.135730227571755e-05
1134.0	4.3941581794259536e-05
1132.1	3.232020856683397e-05
1130.1	2.5426928512255733e-05
1128.2	2.270895180546757e-05
1126.3	2.0756137615125972e-05
1124.4	1.745388138979582e-05
1122.4	1.4125812582232837e-05
1120.5	1.1348301739681303e-05
1118.6	1.1965138151162227e-05
1116.6	1.7298835339408413e-05
1114.7	2.6461765995809174e-05
1112.8	3.645504605038741e-05
1110.9	3.9221373227425564e-05
1108.9	3.268093172847327e-05
1107.0	2.5597743774669853e-05
1105.1	1.882353199161834e-05
1103.1	1.1654972954534384e-05
1101.2	9.258369475171778e-06
1099.3	9.55053359972711e-06
1097.4	1.0717952341503827e-05
1095.4	1.5638160908337803e-05
1093.5	2.8037020613030555e-05
1091.6	4.563590468300765e-05
1089.6	5.392020856683397e-05
1087.7	4.2006744310706104e-05
1085.8	2.4043813654305346e-05
1083.9	1.954941766970421e-05
1081.9	2.655164952975001e-05
1080.0	3.3039276838360714e-05
1078.1	3.216399785585498e-05
1076.1	1.8071858096583993e-05
1074.2	-5.665259977583932e-06
1072.3	-2.2149563861410255e-05
1070.4	-2.059898153111446e-05
1068.4	-8.596700940499974e-06
1066.5	-2.0832123190877604e-06
1064.6	-7.5135373519808944e-06
1062.6	-1.3233745918814871e-05
1060.7	-8.814653282003797e-06
1058.8	-2.8371424394522654e-06
1056.9	-4.891096925101113e-06
1054.9	-1.0365284342868275e-05
1053.0	-7.816982603186972e-06
1051.1	7.313435017786742e-07
1049.1	5.403440378149246e-07
1047.2	-1.0429306564007598e-05
1045.3	-2.2146142975488526e-05
1043.4	-2.2438282734759512e-05
1041.4	-1.4691121290385456e-05
1039.5	-1.2203493981774763e-05
1037.6	-7.921470688562932e-06
1035.6	7.492017932849276e-06
1033.7	2.1326879781687056e-05
1031.8	2.2008927440183235e-05
1029.9	1.941453145558209e-05
1027.9	2.9160576969933245e-05
1026.0	4.885383265922713e-05
1024.1	6.830778714487598e-05
1022.1	8.346962623653817e-05
1020.2	8.24483017396813e-05
1018.3	5.958088299790459e-05
1016.4	3.3106719945421765e-05
1014.4	1.7414580186150777e-05
1012.5	9.35053359972711e-06
1010.6	1.2516495297500134e-06
1008.6	-8.877608303688896e-06
1006.7	-1.898102918961064e-05
1004.8	-2.9081053554894973e-05
1002.9	-4.309679840163734e-05
1000.9	-6.240917109302663e-05
999.0	-7.723391647580525e-05
997.1	-8.306654646459724e-05
995.1	-9.128791969202278e-05
993.2	-0.0001001946640027289
991.3	-9.825759465912967e-05
989.4	-9.269803615808194e-05
987.4	-9.354294137712586e-05
985.5	-9.650584766824228e-05
983.6	-9.860249987817357e-05
981.6	-0.00010512610496564494
979.7	-0.00011578003508600945
977.8	-0.0001232755713659178
975.9	-0.00012834527069830902
973.9	-0.00013550708542468687
972.0	-0.00013803183080746551
970.1	-0.0001293936455338434
968.1	-0.00011932508649675938
966.2	-0.0001199520393742995
964.3	-0.00012584757565420787
962.4	-0.00012171501876126893
960.4	-0.0001035846449978071
958.5	-9.160368890404949e-05
956.6	-0.00010280594512937966
954.6	-0.00012232173870669068
952.7	-0.00013601953121192923
950.8	-0.0001411599727108815
948.9	-0.00013059141367379755
946.9	-0.00011649476146386626
945.0	-0.00011760820135470979
943.1	-0.00012413175771161246
941.1	-0.00011968905998733003
939.2	-0.00011170143267871936
937.3	-0.00010957333950587201
935.4	-0.00010298231567662393
933.4	-9.0301408313435e-05
931.5	-9.218568783197698e-05
929.6	-0.00011162278154086056
927.6	-0.00011804747819307051
925.7	-0.00010294294137712587
923.8	-0.00010026314994395982
921.9	-0.00011894405730714876
919.9	-0.00013081710442960868
918.0	-0.00012941822035963157
916.1	-0.00012718670630086252
914.1	-0.00013084844793138735
912.2	-0.00013408214511963354
910.3	-0.00012829114565566979
908.4	-0.00011967430924418888
906.4	-0.00010436644900345986
904.5	-7.941921446323277e-05
902.6	-5.948658447444081e-05
900.6	-5.106414404756104e-05
898.7	-5.144398421129574e-05
896.8	-4.892149505384727e-05
894.9	-4.198658447444082e-05
892.9	-3.955395448564885e-05
891.0	-2.9779767067881687e-05
889.1	-4.024672286925591e-06
887.1	1.6413537351980895e-05
885.2	1.1386560109156473e-05
883.3	-3.816787680912239e-06
881.4	-4.987529847473325e-06
879.4	-2.338087812484772e-06
877.5	-8.871809366015307e-06
875.6	-1.6003274694215683e-05
873.6	-1.434488085375957e-05
871.7	-8.670766531845427e-06
869.8	-1.6793280054578235e-05
867.9	-3.9369723697675546e-05
865.9	-5.898546854441791e-05
864.0	-7.444053896008966e-05
862.1	-8.796074752692364e-05
860.1	-8.151795234150383e-05
858.2	-5.8914482725013423e-05
856.3	-5.2721227035719515e-05
854.4	-6.625950977047902e-05
852.4	-7.556518688173091e-05
850.5	-7.319551191462405e-05
848.6	-6.982918473758589e-05
846.6	-6.458425515325763e-05
844.7	-6.151465328200379e-05
842.8	-6.88719799230057e-05
840.9	-7.868876760391793e-05
838.9	-8.896620535061645e-05
837.0	-9.664483212319089e-05
835.1	-9.536960187125383e-05
833.1	-0.00010701348862141223
831.2	-0.00013621465328200383
829.3	-0.0001374888650650553
827.4	-9.966868086350567e-05
825.4	-7.460346961649042e-05
823.5	-8.294500268018129e-05
821.6	-9.895739973685491e-05
819.6	-0.00010741589103844842
817.7	-0.00012199121875152281
815.8	-0.0001509901028214999
813.9	-0.0001798114273183568
811.9	-0.00019736305248282246
810.0	-0.0001931180498026412
808.1	-0.00019057542517421177
806.1	-0.00020582724526095218
804.2	-0.0002051587349544369
802.3	-0.00019703852638760296
800.4	-0.00021522962331270402
