3997.9	-8.127463086594219e-05
3996.0	-8.592214804346766e-05
3994.1	-8.725634715657132e-05
3992.1	-8.965784318502996e-05
3990.2	-9.772742556405632e-05
3988.3	-0.00010101300618878222
3986.3	-9.166359826519175e-05
3984.4	-8.118526874908629e-05
3982.5	-7.615674187417767e-05
3980.6	-7.361946786218995e-05
3978.6	-7.80882608060036e-05
3976.7	-8.883538326592273e-05
3974.8	-9.14182837093709e-05
3972.8	-8.001450221724087e-05
3970.9	-6.942742556405634e-05
3969.0	-6.882931631012134e-05
3967.1	-6.92201744554359e-05
3965.1	-6.43144193752741e-05
3963.2	-5.9095740948296875e-05
3961.3	-5.701512596852006e-05
3959.3	-5.464097266215098e-05
3957.4	-4.8572886311583264e-05
3955.5	-4.862915062618781e-05
3953.6	-5.641732859022466e-05
3951.6	-5.51666536718484e-05
3949.7	-4.749927391452663e-05
3947.8	-5.171984308756886e-05
3945.8	-6.538643340967793e-05
3943.9	-7.357421665610839e-05
3942.0	-7.587114175722432e-05
3940.1	-8.202559816773064e-05
3938.1	-8.335003167486966e-05
3936.2	-6.997319818722285e-05
3934.3	-5.175246333024711e-05
3932.3	-3.4491067686759943e-05
3930.4	-2.3057658008868983e-05
3928.5	-2.0014399883046667e-05
3926.6	-1.6768690609619472e-05
3924.6	-1.261194873544179e-05
3922.7	-1.1302806880756364e-05
3920.8	-1.3649451781102374e-05
3918.8	-1.849948345597198e-05
3916.9	-2.378664295112331e-05
3915.0	-3.0649700307002625e-05
3913.1	-3.5621816675600643e-05
3911.1	-3.6177374396959225e-05
3909.2	-3.161219726134209e-05
3907.3	-1.0658822669460663e-05
3905.3	1.5182271819112064e-05
3903.4	2.0457316894888136e-05
3901.5	1.0450460503873922e-05
3899.6	-3.1230057014766752e-06
3897.6	-1.2057555674674836e-05
3895.7	-6.307377808099034e-06
3893.8	8.446932410701227e-06
3891.8	1.5255699040007725e-05
3889.9	1.4495570391306401e-05
3888.0	2.0992661176355803e-05
3886.1	2.9070220749476117e-05
3884.1	2.481229472247931e-05
3882.2	1.4636314019784568e-05
3880.3	3.5091174894010847e-06
3878.3	-3.4162711368842754e-06
3876.4	4.303113883338973e-06
3874.5	1.986018712538362e-05
3872.6	3.388488865065044e-05
3870.6	4.0159309975147336e-05
3868.7	3.371083767847547e-05
3866.8	2.954154768286131e-05
3864.8	3.539236879294375e-05
3862.9	3.584113347302744e-05
3861.0	2.605813069538515e-05
3859.1	2.2515184445202408e-05
3857.1	4.620493640660785e-05
3855.2	8.558055650309364e-05
3853.3	9.521439988304653e-05
3851.3	6.6502002826373e-05
3849.4	3.445933434043162e-05
3847.5	1.987670678816822e-05
3845.6	2.503045660542854e-05
3843.6	4.159021002875094e-05
3841.7	6.180348423566088e-05
3839.8	8.848068807562962e-05
3837.8	0.00010087858778811928
3835.9	8.286602017445533e-05
3834.0	6.555966570829863e-05
3832.1	6.398919155986544e-05
3830.1	5.710903464743432e-05
3828.2	3.9799727108815245e-05
3826.3	2.7003196725305722e-05
3824.3	3.583797573217663e-05
3822.4	5.89986209249061e-05
3820.5	7.302141221188034e-05
3818.6	8.472488182837074e-05
3816.6	9.646689245163464e-05
3814.7	8.381445348667191e-05
3812.8	5.423409190585246e-05
3810.8	4.581028214999263e-05
3808.9	6.703853613371664e-05
3807.0	8.367528872861921e-05
3805.1	8.53510209054138e-05
3803.1	9.758808537595621e-05
3801.2	0.00010401804492958392
3799.3	8.504108961551564e-05
3797.3	6.465459772915543e-05
3795.4	4.786930948784166e-05
3793.5	3.4947224794113326e-05
3791.6	3.997022562253299e-05
3789.6	5.457251108620435e-05
3787.7	5.9305297012816125e-05
3785.8	5.70540811851274e-05
3783.8	5.741082305930507e-05
3781.9	5.6780965839871306e-05
3780.0	5.268152624141116e-05
3778.1	4.868443545636179e-05
3776.1	4.578260806003603e-05
3774.2	4.7225554310218774e-05
3772.3	5.497884606013348e-05
3770.3	6.28610594025631e-05
3768.4	6.783103649919583e-05
3766.5	7.112850250962427e-05
3764.6	6.790201257248665e-05
3762.6	6.259436674625987e-05
3760.7	6.417184347741329e-05
3758.8	6.993930607670183e-05
3756.8	8.067130256810093e-05
3754.9	0.00010186913893085118
3753.0	0.00012656481165635163
3751.1	0.00013078030797719392
3749.1	0.00011229927878758281
3747.2	0.00010761211929243182
3745.3	0.00011421238731055975
3743.3	9.528602407290056e-05
3741.4	7.300231957506939e-05
3739.5	7.971900492178728e-05
3737.6	9.380927830027772e-05
3735.6	9.541970664197618e-05
3733.7	8.709352858047822e-05
3731.8	7.126834949563858e-05
3729.8	5.429297305199548e-05
3727.9	4.664094829686657e-05
3726.0	4.982393158228148e-05
3724.1	5.84661712392183e-05
3722.1	6.417483553433062e-05
3720.2	5.770201257248667e-05
3718.3	4.450672969153548e-05
3716.3	4.206962136348125e-05
3714.4	5.528376784757073e-05
3712.5	6.741391257735949e-05
3710.6	6.625330636908522e-05
3708.6	5.978738365576715e-05
3706.7	5.6259295355976755e-05
3704.8	5.6426904146971314e-05
3702.8	5.7023371180741565e-05
3700.9	5.4000121826421684e-05
3699.0	5.2257945519224166e-05
3697.1	5.4983626528921576e-05
3695.1	5.9286867111739156e-05
3693.2	7.063812192388281e-05
3691.3	9.129972223575838e-05
3689.3	0.00010150424930558928
3687.4	8.735567467472321e-05
3685.5	6.674788752984733e-05
3683.6	5.542137810048241e-05
3681.6	4.943328297841231e-05
3679.7	5.7901325471468204e-05
3677.8	9.022369767555172e-05
3675.8	0.00011126078163832163
3673.9	9.90524097266212e-05
3672.0	8.743986160518469e-05
3670.1	8.498721309877671e-05
3668.1	7.103263486184859e-05
3666.2	5.5261186102041734e-05
3664.3	4.6596467033770265e-05
3662.3	4.0323415038253494e-05
3660.4	4.085975342332241e-05
3658.5	4.9936377369523885e-05
3656.6	5.4389669119438524e-05
3654.6	5.3021582768870805e-05
3652.7	6.352893621168547e-05
3650.8	8.24959797280832e-05
3648.8	8.111727498659905e-05
3646.9	5.670358656985504e-05
3645.0	3.2849383558306044e-05
3643.1	1.7132015983626462e-05
3641.1	9.258486428536609e-06
3639.2	1.3322001851761588e-05
3637.3	2.3477247697480588e-05
3635.3	2.8695302373178683e-05
3633.4	3.201510160323568e-05
3631.5	5.3364797037181344e-05
3629.6	8.339084839920053e-05
3627.6	8.069263681107137e-05
3625.7	5.1626694605525966e-05
3623.8	3.5540616928999506e-05
3621.8	4.134331660250463e-05
3619.9	5.179669119438607e-05
3618.0	5.2327815408605724e-05
3616.1	4.6223702548608666e-05
3614.1	3.793851664148914e-05
3612.2	3.0036396861751302e-05
3610.3	3.111102772769347e-05
3608.3	3.623481799132583e-05
3606.4	3.6606188782223044e-05
3604.5	3.33974221529165e-05
3602.6	2.8978743725939266e-05
3600.6	2.6505067979143288e-05
3598.7	2.9084976365674177e-05
3596.8	3.2582773743969524e-05
3594.8	2.8503342917011798e-05
3592.9	2.3566068905024086e-05
3591.0	3.187466985039706e-05
3589.1	4.258004970517993e-05
3587.1	4.0589191559865464e-05
3585.2	3.309058525412988e-05
3583.3	2.9595843282491095e-05
3581.3	2.8688114614297532e-05
3579.4	2.6834135763364324e-05
3577.5	2.4140597436772074e-05
3575.6	1.6463369231518903e-05
3573.6	6.836338385068935e-06
3571.7	9.836109351396094e-06
3569.8	1.949893767360259e-05
3567.8	2.0975790653476835e-05
3565.9	1.6627006481165555e-05
3564.0	1.2214770235368625e-05
3562.1	1.05156230203206e-05
3560.1	9.190794795575232e-06
3558.2	5.288426489937117e-06
3556.3	4.090317236002126e-06
3554.3	3.6037181423907006e-06
3552.4	-3.9965937332488795e-06
3550.5	-1.1483275668827079e-05
3548.6	-1.0148204278543976e-05
3546.6	-6.503991033575396e-06
3544.7	-7.816997222357623e-06
3542.8	-1.0191710930266559e-05
3540.8	-4.792188489839694e-06
3538.9	9.684644997807108e-06
3537.0	1.934855513863844e-05
3535.1	1.4097173627016218e-05
3533.1	-1.863349739291468e-06
3531.2	-1.86275717557624e-05
3529.3	-2.3673821938502044e-05
3527.3	-1.177712587105893e-05
3525.4	2.3757516690219645e-06
3523.5	2.767316407582422e-06
3521.6	-2.8666536718483757e-06
3519.6	1.574318990302599e-06
3517.7	6.484562155840352e-06
3515.8	-2.09605282393647e-06
3513.8	-1.0517328590224658e-05
3511.9	-6.709288046391521e-06
3510.0	2.204819453242995e-06
3508.1	4.769830904926645e-06
3506.1	-3.3974660104283744e-06
3504.2	-1.180731445835976e-05
3502.3	-1.3572720627649741e-05
3500.3	-1.791992592953561e-05
3498.4	-2.2839705667365155e-05
3496.5	-1.7182257199941533e-05
3494.6	-7.843487159495157e-06
3492.6	-5.570912723551506e-06
3490.7	-5.943175283855573e-06
3488.8	-8.223395546026026e-06
3486.8	-1.3490297743774685e-05
3484.9	-1.2500146191706072e-05
3483.0	-8.119136494322905e-06
3481.1	-8.320320647141964e-06
3479.1	-8.032932118317834e-06
3477.2	-8.303303932556902e-06
3475.3	-1.3029940061400522e-05
3473.3	-1.676721407338825e-05
3471.4	-1.4533721553530539e-05
3469.5	-1.5208581453145568e-05
3467.6	-2.6660669558013748e-05
3465.6	-3.850290921495054e-05
3463.7	-3.8466819355781886e-05
3461.8	-3.098888455728278e-05
3459.8	-2.2293060767019158e-05
3457.9	-9.631830807465528e-06
3456.0	9.244335071390198e-07
3454.1	-1.441762097363679e-06
3452.1	-7.69653038350958e-06
3450.2	-4.658072218702791e-06
3448.3	2.542010623263957e-06
3446.3	9.92207982067129e-07
3444.4	-9.911656352029639e-06
3442.5	-1.935429072657278e-05
3440.6	-2.2398421129574587e-05
3438.6	-1.9622377077140494e-05
3436.7	-1.3297236976755529e-05
3434.8	-8.758778811948742e-06
3432.8	-5.3975488523951216e-06
3430.9	-2.732537400711476e-06
3429.0	-1.656493348277384e-06
3427.1	4.237044978314889e-06
3425.1	1.4943901369328964e-05
3423.2	1.6407416792553948e-05
3421.3	3.4138784659616854e-06
3419.3	-1.0282734759514652e-05
3417.4	-1.5983918912333716e-05
3415.5	-2.0399522440426887e-05
3413.6	-2.8282028166268713e-05
3411.6	-3.164703961795234e-05
3409.7	-2.1185414940792366e-05
3407.8	-2.2606695580137576e-06
3405.8	8.83893572437989e-06
3403.9	9.170849373812182e-06
3402.0	7.523726913893068e-06
3400.1	7.785746308659404e-06
3398.1	7.694493445738505e-06
3396.2	9.440119877198945e-06
3394.3	1.5845480239754378e-05
3392.3	2.1604819453243e-05
3390.4	2.131466790117439e-05
3388.5	1.908952780078942e-05
3386.6	1.4471638809024884e-05
3384.6	1.0495200038984441e-05
3382.7	1.6145397397787622e-05
3380.8	2.5107022074947602e-05
3378.8	3.0385351591053056e-05
3376.9	3.6852253788801707e-05
3375.0	3.780245114760488e-05
3373.1	2.965383265922711e-05
3371.1	2.268811461429753e-05
3369.2	2.197140977535206e-05
3367.3	2.6577476731153435e-05
3365.3	3.403334632815162e-05
3363.4	3.804855513863844e-05
3361.5	3.683374104575799e-05
3359.6	3.585998245699526e-05
3357.6	3.747936747721844e-05
3355.7	3.8889610642756175e-05
3353.8	3.8574007114663e-05
3351.8	4.07595877393889e-05
3349.9	4.5407894352127066e-05
3348.0	4.6404819453243e-05
3346.1	4.207093221577893e-05
3344.1	3.6387637054724405e-05
3342.2	3.502530578431849e-05
3340.3	3.810103796111297e-05
3338.3	4.1371804492958396e-05
3336.4	4.435431021880024e-05
3334.5	4.5649344573851165e-05
3332.6	4.310103796111297e-05
3330.6	4.046415866673162e-05
3328.7	4.1094971005311614e-05
3326.8	4.512538862628526e-05
3324.8	4.848811461429754e-05
3322.9	4.6613961307928445e-05
3321.0	5.094894985624479e-05
3319.1	6.692349788022024e-05
3317.1	7.821743092441887e-05
3315.2	7.669347497685295e-05
3313.3	6.888890404951023e-05
3311.3	5.490639832366843e-05
3309.4	3.754367233565613e-05
3307.5	2.8167628283222042e-05
3305.6	3.0499936650260696e-05
3303.6	3.765809171093024e-05
3301.7	4.244894985624479e-05
3299.8	4.415541152965254e-05
3297.8	4.821853223527116e-05
3295.9	5.2781652940889794e-05
3294.0	5.346872959407434e-05
3292.1	5.1075191267482065e-05
3290.1	4.6268334876467984e-05
3288.2	4.5778972759612086e-05
3286.3	5.438354368695482e-05
3284.3	5.994248818283708e-05
3282.4	5.193791725549436e-05
3280.5	4.2479367477218445e-05
3278.6	4.2997651186589326e-05
3276.6	4.417598070269477e-05
3274.7	4.228582915062616e-05
3272.8	4.4004819453242994e-05
3270.8	4.673106086448027e-05
3268.9	5.092042298133618e-05
3267.0	5.8878972759612086e-05
3265.1	6.453066614687392e-05
3263.1	6.078882120754348e-05
3261.2	5.019071195360848e-05
3259.3	4.260552604648895e-05
3257.3	4.3276999171580316e-05
3255.4	4.4477393889186676e-05
3253.5	4.1318844110910754e-05
3251.6	4.057699917158032e-05
3249.6	4.246557185322351e-05
3247.7	3.799141854685443e-05
3245.8	3.262869255884216e-05
3243.8	3.1816163929633046e-05
3241.9	2.935115247794939e-05
3240.0	2.7727196530383493e-05
3238.1	3.3724911066712135e-05
3236.1	4.009220798206713e-05
3234.2	4.153554894985623e-05
3232.3	4.3885351591053056e-05
3230.3	4.828078066371033e-05
3228.4	4.7841221188051265e-05
3226.5	3.956667316407581e-05
3224.6	2.6181487256956282e-05
3222.6	1.640126699478582e-05
3220.7	1.620394717606353e-05
3218.8	1.856746259928852e-05
3216.8	1.8772428244237607e-05
3214.9	1.903365820379122e-05
3213.0	2.1329087276448498e-05
3211.1	2.3476604453973965e-05
3209.1	1.8652648506408066e-05
3207.2	9.246186833000323e-06
3205.3	2.406627357341251e-06
3203.3	-4.822688952780089e-06
3201.4	-1.2501807904098243e-05
3199.5	-1.3062643146045523e-05
3197.6	-9.044754154280986e-06
3195.6	-1.0731830807465528e-05
3193.7	-1.2126158569270503e-05
3191.8	-5.437980605233667e-06
3189.8	-1.9212757662881938e-06
3187.9	-8.765011451683643e-06
3186.0	-1.4458549778275913e-05
3184.1	-1.5617099556551825e-05
3182.1	-2.254940792359047e-05
3180.2	-2.9995034355050922e-05
3178.3	-2.5736484576775013e-05
3176.3	-1.8323955947565905e-05
3174.4	-2.1720569173042247e-05
3172.5	-3.0464304858437694e-05
3170.6	-3.1398109253935e-05
3168.6	-2.632088104868184e-05
3166.7	-2.5440266068905034e-05
3164.8	-3.025208810486818e-05
3162.8	-3.442931631012134e-05
3160.9	-3.141450221724087e-05
3159.0	-2.3944919838214508e-05
3157.1	-2.3884084596267234e-05
3155.1	-3.122703084644997e-05
3153.2	-3.267375858876273e-05
3151.3	-3.094334096778909e-05
3149.3	-3.587533745918815e-05
3147.4	-4.264838945470493e-05
3145.5	-4.3726718970810385e-05
3143.6	-3.9693621168559034e-05
3141.6	-3.337116124945178e-05
3139.7	-3.0433492519857707e-05
3137.8	-3.615098679401588e-05
3135.8	-4.7290940987281316e-05
3133.9	-5.3113400906388576e-05
3132.0	-4.847463086594219e-05
3130.1	-3.650465376930948e-05
3128.1	-2.5440348910871787e-05
3126.2	-2.1358944495882266e-05
3124.3	-2.5863120705618636e-05
3122.3	-3.7211032600750455e-05
3120.4	-5.127226256030408e-05
3118.5	-6.155098679401588e-05
3116.6	-5.7985580624725885e-05
3114.6	-4.4085185907119535e-05
3112.7	-3.899204229813361e-05
3110.8	-4.454491983821451e-05
3108.8	-4.6090940987281314e-05
3106.9	-4.3706149797768134e-05
3105.0	-4.989094098728132e-05
3103.1	-6.507612689440086e-05
3101.1	-7.394838945470493e-05
3099.2	-6.834838945470493e-05
3097.3	-5.847195068466448e-05
3095.3	-5.4174236148335844e-05
3093.4	-5.291151016032356e-05
3091.5	-5.104153306369085e-05
3089.6	-4.646469957604405e-05
3087.6	-3.692514010038497e-05
3085.7	-2.9355163003752253e-05
3083.8	-3.282206520150091e-05
3081.8	-3.9806461673407726e-05
3079.9	-3.888479118951318e-05
3078.0	-3.45661956045027e-05
3076.1	-3.390197358803177e-05
3074.1	-3.684342380975586e-05
3072.2	-4.0054061692899954e-05
3070.3	-4.230157887042542e-05
3068.3	-4.061182203596316e-05
3066.4	-3.5450592076409535e-05
3064.5	-3.068140441498952e-05
3062.6	-2.790804054383314e-05
3060.6	-2.4910326007504504e-05
3058.7	-2.3173051995516782e-05
3056.8	-2.6533492519857707e-05
3054.8	-3.085059207640953e-05
3052.9	-2.7059339213488617e-05
3051.0	-1.9583689878660883e-05
3049.1	-1.9542634374543147e-05
3047.1	-2.349661322547634e-05
3045.2	-2.4952877540080892e-05
3043.3	-2.482285463671361e-05
3041.3	-2.4377622922859505e-05
3039.4	-2.862324935431996e-05
3037.5	-3.528786608839725e-05
3035.6	-3.401938502022318e-05
3033.6	-2.6218595585010474e-05
3031.7	-2.2866507480142294e-05
3029.8	-2.6282505725841823e-05
3027.8	-3.3328921592514986e-05
3025.9	-3.9763910140831345e-05
3024.0	-3.9139954193265436e-05
3022.1	-2.9357053749817263e-05
3020.1	-1.637147312509137e-05
3018.2	-9.564222016470933e-06
3016.3	-1.3866507480142294e-05
3014.3	-2.0730022903367282e-05
3012.4	-2.2538770040446372e-05
3010.5	-2.4925451976024562e-05
3008.6	-3.0075254617221383e-05
3006.6	-3.213191364943229e-05
3004.7	-3.128668193557819e-05
3002.8	-3.049771453632864e-05
3000.8	-3.238022026217046e-05
2998.9	-3.688022026217046e-05
2997.0	-3.880417620973637e-05
2995.1	-3.6204176209736365e-05
2993.1	-3.303687929438136e-05
2991.2	-3.107832951610545e-05
2989.3	-3.002395594756591e-05
2987.3	-3.040646167340773e-05
2985.4	-3.273916475805273e-05
2983.5	-3.413955947565908e-05
2981.6	-2.876580088689635e-05
2979.6	-1.8682900443448176e-05
2977.7	-1.2623955947565909e-05
2975.8	-1.1980220262170459e-05
2973.8	-1.3877540080892744e-05
2971.9	-1.582734272208957e-05
2970.0	-1.662962818576093e-05
2968.1	-1.8183607036694124e-05
2966.1	-1.9310949758783694e-05
2964.2	-1.8579742702597342e-05
2962.3	-1.6140577944544623e-05
2960.3	-1.1078246674138694e-05
2958.4	-1.0487783246430492e-05
2956.5	-1.682923346815457e-05
2954.6	-2.0606773549047322e-05
2952.6	-1.6610555041177345e-05
2950.7	-1.0069499537059607e-05
2948.8	-5.121982359534139e-06
2946.8	-4.113235222455049e-06
2944.9	-7.856576190244148e-06
2943.0	-1.0956181472637791e-05
2941.1	-8.616227279372358e-06
2939.1	-3.926470444910095e-06
2937.2	-1.185414940792368e-06
2935.3	-1.4131864918863002e-09
2933.3	-2.1561814726377975e-06
2931.4	-4.693060767019157e-06
2929.5	-1.7557867550314399e-06
2927.6	2.17502558354855e-06
2925.6	3.6293991520880997e-06
2923.7	4.500872277179463e-06
2921.8	8.075025583548548e-06
2919.8	1.6997880220262157e-05
2917.9	2.2877393889186673e-05
2916.0	1.6605920764095307e-05
2914.1	6.581175381316678e-06
2912.1	2.2910238292480795e-06
2910.2	1.7993762487208127e-06
2908.3	6.689586277471777e-07
2906.3	3.404317528385458e-07
2904.4	6.3491788899176426e-06
2902.5	1.658227669216898e-05
2900.6	2.2095200038984446e-05
2898.6	2.3653355099654005e-05
2896.7	2.3946498708639923e-05
2894.8	2.0857136591784023e-05
2892.8	1.6994410603771744e-05
2890.9	1.6238935724379893e-05
2889.0	1.7759110179815792e-05
2887.1	1.926974806295989e-05
2885.1	1.943475951464352e-05
2883.2	1.6662891671945797e-05
2881.3	1.0218761268944004e-05
2879.3	3.4681691925344652e-06
2877.4	1.1598167730617352e-06
2875.5	3.516870522878993e-06
2873.6	7.190629111641719e-06
2871.6	8.888343647970357e-06
2869.7	8.521441450221716e-06
2867.8	7.1674625992885205e-06
2865.8	7.717265240485351e-06
2863.9	1.196249695433944e-05
2862.0	1.612522294235173e-05
2860.1	1.716856391014082e-05
2858.1	1.7364387700404457e-05
2856.2	1.953436479703717e-05
2854.3	2.292601237756443e-05
2852.3	2.2873924272696254e-05
2850.4	1.967620973636761e-05
2848.5	1.7928692558842155e-05
2846.6	1.90157692120267e-05
2844.6	2.0793704010525785e-05
2842.7	1.8995594756590803e-05
2840.8	1.3554539252473065e-05
2838.8	1.0802845865211237e-05
2836.9	1.1765966570829865e-05
2835.0	1.4809307538618954e-05
2833.1	1.841805467569805e-05
2831.1	1.7911593002290323e-05
2829.2	1.2095989474197156e-05
2827.3	5.691023829248081e-06
2825.3	3.927508406023083e-06
2823.4	1.023168461575945e-05
2821.5	2.0284167438233994e-05
2819.6	2.390205642999853e-05
2817.6	2.2087242337118065e-05
2815.7	2.2198669655474864e-05
2813.8	2.348614102626577e-05
2811.8	2.097093221577894e-05
2809.9	1.5238229131133953e-05
2808.0	1.1653832659227109e-05
2806.1	1.2619238828517119e-05
2804.1	1.6251152477949392e-05
2802.2	2.0050363042736687e-05
2800.3	2.2256824716144428e-05
2798.3	2.2961395643487145e-05
2796.4	2.144807757906534e-05
2794.5	1.594539739778762e-05
2792.6	1.0914979776813983e-05
2790.6	1.4334759514643522e-05
2788.7	2.1441221188051263e-05
2786.8	2.4226012377564432e-05
2784.8	2.321537449442034e-05
2782.9	2.0967857316894882e-05
2781.0	1.9730978022513503e-05
2779.1	2.1402451147604883e-05
2777.1	2.2330583304907154e-05
2775.2	2.050930753861896e-05
2773.3	2.0514273183568046e-05
2771.3	2.0205526046488955e-05
2769.4	1.6018054675698046e-05
2767.5	1.4991813264460786e-05
2765.6	1.777242824423761e-05
2763.6	1.664847229667169e-05
2761.7	1.3113483748355319e-05
2759.8	1.589638419180351e-05
2757.8	2.5731767457726223e-05
2755.9	3.5466756006042574e-05
2754.0	3.689260269967348e-05
2752.1	3.34944934457385e-05
2750.1	3.164658155060669e-05
2748.2	2.9720734856975774e-05
2746.3	2.7046976268213035e-05
2744.3	2.5576999171580316e-05
2742.4	2.4472033526631245e-05
2740.5	2.606328638955216e-05
2738.6	2.864658155060669e-05
2736.6	2.581238243750302e-05
2734.7	2.3012382437503028e-05
2732.8	2.8538623848740296e-05
2730.8	3.4508600945373015e-05
2728.9	3.264548023975437e-05
2727.0	2.8445085522148035e-05
2725.1	2.608842648993712e-05
2723.1	2.3786141026265765e-05
2721.2	2.102262560304077e-05
2719.3	1.9159110179815793e-05
2717.3	2.0050363042736687e-05
2715.4	2.3583066127381702e-05
2713.5	2.6167857316894886e-05
2711.6	2.3813483748355325e-05
2709.6	1.9317659958091693e-05
2707.7	1.7819550704156705e-05
2705.8	1.6541221188051263e-05
2703.8	1.3845792115393979e-05
2701.9	1.2663681107158504e-05
2700.0	1.3151152477949385e-05
2698.1	1.6055723405292132e-05
2696.1	2.0673217679450308e-05
2694.2	2.2881964816529404e-05
2692.3	2.276218507869986e-05
2690.3	2.2955328687685775e-05
2688.4	2.4329087276448496e-05
2686.5	2.947282296184396e-05
2684.6	3.51059207640953e-05
2682.6	3.626257979630621e-05
2680.7	3.665572340529214e-05
2678.8	3.840095511914623e-05
2676.8	3.8650757760343044e-05
2674.9	3.715532868768577e-05
2673.0	3.524280005847666e-05
2671.1	3.285840358656985e-05
2669.1	3.229985380829393e-05
2667.2	3.470860094537301e-05
2665.3	3.4578183324399355e-05
2663.3	2.9997568344622563e-05
2661.4	2.6990711953608478e-05
2659.5	2.8099064373081216e-05
2657.6	2.8559504897422142e-05
2655.6	2.6037439695921235e-05
2653.7	2.15849568734467e-05
2651.8	1.7838935724379895e-05
2649.8	1.3906627357341253e-05
2647.9	1.0133658203791214e-05
2646.0	1.1797173627016216e-05
2644.1	1.653594366746259e-05
2642.1	1.6953043224014413e-05
2640.2	1.7229481994054865e-05
2638.3	2.005154719555576e-05
2636.3	1.9968646752107587e-05
2634.4	1.4733263486184866e-05
2632.5	1.3278495200038978e-05
2630.6	1.8980385946103982e-05
2628.6	2.358913308318307e-05
2626.7	2.475493397007941e-05
2624.8	2.642073485697577e-05
2622.8	2.488842648993712e-05
2620.9	1.6921129574582126e-05
2619.0	9.775108425515298e-06
2617.1	8.894098728132142e-06
2615.1	1.1263681107158504e-05
2613.2	1.4692602699673475e-05
2611.3	1.6095282880951208e-05
2609.3	1.1012382437503028e-05
2607.4	4.842010623263959e-06
2605.5	5.021836167828064e-06
2603.6	8.841221188051265e-06
2601.6	1.1367462599288528e-05
2599.7	1.193097802251351e-05
2597.8	1.1724911066712129e-05
2595.8	9.092207982067136e-06
2593.9	7.3853515910530496e-06
2592.0	1.4883460844988045e-05
2590.1	2.3416558647239404e-05
2588.1	2.036864675210759e-05
2586.2	1.167699917158032e-05
2584.3	6.3766044539739626e-06
2582.3	3.2674625992885206e-06
2580.4	-1.0669070708055583e-07
2578.5	-5.089761707519208e-07
2576.6	3.7518590711953503e-06
2574.6	7.630188587300805e-06
2572.7	6.499770966327163e-06
2570.8	3.6324740509721643e-06
2568.8	2.44768286145898e-06
2566.9	2.803947176063527e-06
2565.0	3.749573607523995e-06
2563.1	6.680385946103984e-06
2561.1	9.33058330490715e-06
2559.2	7.693309292919437e-06
2557.3	5.268958627747181e-06
2555.3	4.0035524584571846e-06
2553.4	-9.812387310559974e-07
2551.5	-9.374777057648264e-06
2549.6	-1.3509765605964628e-05
2547.6	-8.192666049412806e-06
2545.7	3.506749183762882e-07
2543.8	5.411904877929916e-06
2541.8	7.547288143852631e-06
2539.9	7.251859071195347e-06
2538.0	3.147288143852632e-06
2536.1	-4.1811802543736623e-07
2534.1	7.560352809317177e-07
2532.2	1.5955947565908068e-06
2530.3	-1.6910871789873851e-06
2528.3	-4.247746211198296e-06
2526.4	-2.643964719068277e-06
2524.5	2.7313483748354743e-07
2522.6	1.6362555431021777e-06
2520.6	1.9275084060230816e-06
2518.7	1.8404317528385416e-06
2516.8	-1.968422591491672e-07
2514.8	-5.88888455728279e-06
2512.9	-9.758861653915513e-06
2511.0	-8.458466936309153e-06
2509.1	-7.0014131864918904e-06
2507.1	-7.318512743043723e-06
2505.2	-5.707480142293273e-06
2503.3	-2.5401832269382734e-06
2501.3	-4.166219969787103e-07
2499.4	1.1568637005992749e-07
2497.5	-1.2322255250718851e-06
2495.6	-2.1736757467959704e-06
2493.6	-2.123873105599148e-06
2491.7	-2.2303347790068784e-06
2489.8	-1.638687198479616e-06
2487.8	-2.562643146045525e-06
2485.9	-4.75886165391551e-06
2484.0	-5.254685444179139e-06
2482.1	-7.365323327323233e-06
2480.1	-1.2752399980507776e-05
2478.2	-1.7865718044929585e-05
2476.3	-2.1311344476390043e-05
2474.3	-2.425925637152186e-05
2472.4	-2.5685892500365488e-05
2470.5	-2.5116704838945477e-05
2468.6	-2.720795770186638e-05
2466.6	-3.172962818576093e-05
2464.7	-3.126193655279958e-05
2462.8	-2.5752794698114132e-05
2460.8	-2.4276750645680044e-05
2458.9	-2.8829233468154577e-05
2457.0	-2.958360703669413e-05
2455.1	-2.473340967789094e-05
2453.1	-2.569424491983822e-05
2451.2	-2.9887783246430496e-05
2449.3	-2.6918200867404126e-05
2447.3	-2.4029233468154575e-05
2445.4	-3.117982554456411e-05
2443.5	-4.069125286292092e-05
2441.6	-4.350646167340773e-05
2439.6	-4.174105550411774e-05
2437.7	-4.04433409677891e-05
2435.8	-4.340228546367136e-05
2433.8	-4.7695823790263635e-05
2431.9	-4.614562643146045e-05
2430.0	-4.0145231713854094e-05
2428.1	-3.7825451976024564e-05
2426.1	-3.914105550411774e-05
2424.2	-3.913081233857999e-05
2422.3	-3.69441304030018e-05
2420.3	-3.658975683446226e-05
2418.4	-3.933081233857999e-05
2416.5	-4.181292334681546e-05
2414.6	-4.455815506066956e-05
2412.6	-5.026272598801228e-05
2410.7	-5.427643877004045e-05
2408.8	-5.282892159251498e-05
2406.8	-4.877872423371181e-05
2404.9	-4.254562643146045e-05
2403.0	-3.531024316553774e-05
2401.1	-2.977525461722139e-05
2399.1	-2.7010637883144093e-05
2397.2	-3.0904965644949074e-05
2395.3	-4.2003074898884076e-05
2393.3	-5.213766872959407e-05
2391.4	-5.337454802397544e-05
2389.5	-4.8600789435212705e-05
2387.6	-4.539015155206861e-05
2385.6	-4.6164304858437696e-05
2383.7	-4.832514010038498e-05
2381.8	-4.861788899176454e-05
2379.8	-5.007564933482774e-05
2377.9	-5.3507957701866387e-05
2376.0	-5.338400175430047e-05
2374.1	-5.3420486331075475e-05
2372.1	-5.70367964524146e-05
2370.2	-6.076602992056918e-05
2368.3	-6.387398762243556e-05
2366.3	-6.56735929048292e-05
2364.4	-6.572528629209104e-05
2362.5	-6.452071536474831e-05
2360.6	-6.185798937673604e-05
2358.6	-5.7723395546026044e-05
2356.7	-5.6171307441157854e-05
2354.8	-5.951354709809464e-05
2352.8	-6.510448808537595e-05
2350.9	-6.970606695580138e-05
2349.0	-6.843230836703866e-05
2347.1	-5.9981321573022754e-05
2345.1	-4.953033477900688e-05
2343.2	-4.257099556551827e-05
2341.3	-4.103143608985918e-05
2339.3	-4.5472886311583256e-05
2337.4	-5.236264314604553e-05
2335.5	-5.385200526290142e-05
2333.6	-4.9947434335558704e-05
2331.6	-4.979534623069053e-05
2329.7	-5.4661147117586875e-05
2327.8	-6.07011013108523e-05
2325.8	-6.609731981872227e-05
2323.9	-6.846729691535501e-05
2322.0	-6.441560352809317e-05
2320.1	-5.845059207640954e-05
2318.1	-5.890725110862044e-05
2316.2	-6.196201939476634e-05
2314.3	-6.244949076555723e-05
2312.3	-6.350425905170312e-05
2310.4	-6.421757711612493e-05
2308.5	-6.268944495882266e-05
2306.6	-6.31419277812972e-05
2304.6	-6.859898153111447e-05
2302.7	-7.46754203011549e-05
2300.8	-7.811229959553626e-05
2298.8	-7.623357536182447e-05
2296.9	-6.940733395058719e-05
2295.0	-6.260772866819355e-05
2293.1	-6.020772866819355e-05
2291.1	-6.319630134983674e-05
2289.2	-6.866777447492812e-05
2287.3	-7.171151016032356e-05
2285.3	-6.999023439403538e-05
2283.4	-6.711458505920763e-05
2281.5	-6.541001413186491e-05
2279.6	-6.46852687490863e-05
2277.6	-6.52065445153745e-05
2275.7	-6.728944495882266e-05
2273.8	-6.778566346669265e-05
2271.8	-6.491419034160128e-05
2269.9	-6.468605818429901e-05
2268.0	-7.007124409141855e-05
2266.1	-7.460851810340625e-05
2264.1	-7.211269431314263e-05
2262.2	-6.564728814385264e-05
2260.3	-6.556060620827444e-05
2258.3	-7.304579211539398e-05
2256.4	-8.036557185322351e-05
2254.5	-8.046785731689488e-05
2252.6	-7.378952780078942e-05
2250.6	-6.89849568734467e-05
2248.7	-7.268724233711806e-05
2246.8	-7.862034013936942e-05
2244.8	-7.777699917158032e-05
2242.9	-7.470473661127624e-05
2241.0	-7.483893572437989e-05
2239.1	-7.349520003898444e-05
2237.1	-6.94081233857999e-05
2235.2	-6.718416743823399e-05
2233.3	-6.750166171239219e-05
2231.3	-7.065414453486672e-05
2229.4	-7.657849520003899e-05
2227.5	-7.812640709517078e-05
2225.6	-7.425414453486671e-05
2223.6	-7.341647580527265e-05
2221.7	-7.604878417231129e-05
2219.8	-7.537731104721992e-05
2217.8	-6.9084167438234e-05
2215.9	-6.326895862774717e-05
2214.0	-6.40100141318649e-05
2212.1	-6.973168461575944e-05
2210.1	-7.11081233857999e-05
2208.2	-6.281915598655035e-05
2206.3	-5.2466673164075814e-05
2204.3	-5.1921046732615356e-05
2202.4	-5.8613089030748976e-05
2200.5	-6.116596657082987e-05
2198.6	-5.8329087276448496e-05
2196.6	-5.606368110715851e-05
2194.7	-5.546368110715851e-05
2192.8	-5.66617903610935e-05
2190.8	-6.023822913113395e-05
2188.9	-6.413405292139758e-05
2187.0	-6.766218507869986e-05
2185.1	-6.874201062326396e-05
2183.1	-6.753704497831488e-05
2181.2	-6.665642999853807e-05
2179.3	-6.48195507041567e-05
2177.3	-6.098724233711807e-05
2175.4	-5.895493397007941e-05
2173.5	-5.8013483748355326e-05
2171.6	-5.56522537888017e-05
2169.6	-5.345642999853807e-05
2167.7	-5.111726524048535e-05
2165.8	-4.666706788168216e-05
2163.8	-4.279937624872081e-05
2161.9	-3.991876126894401e-05
2160.0	-3.4048784172311284e-05
2158.1	-2.7995906632230393e-05
2156.1	-2.8124038789532672e-05
2154.2	-3.244649870863992e-05
2152.3	-3.406249695433944e-05
2150.3	-3.225603528093172e-05
2148.4	-3.07293991520881e-05
2146.5	-3.2368169192534466e-05
2144.6	-3.3218366551337656e-05
2142.6	-2.778834364797036e-05
2140.7	-1.9351464353588995e-05
2138.8	-1.5363992982798097e-05
2136.8	-1.6170059938599476e-05
2134.9	-1.6829004434481744e-05
2133.0	-1.5422937478680364e-05
2131.1	-1.5092519857706732e-05
2129.1	-1.5783378003021287e-05
2127.2	-1.4421753325861308e-05
2125.3	-1.176241411237269e-05
2123.3	-1.0110326007504503e-05
2121.4	-8.260918083914036e-06
2119.5	-5.122148043467662e-06
2117.6	1.3451098874324408e-07
2115.6	7.506773549047322e-06
2113.7	1.2359651089128214e-05
2111.8	1.4568792943813656e-05
2109.8	1.5885892500365484e-05
2107.9	1.517864139174504e-05
2106.0	1.7098026411968236e-05
2104.1	2.5122377077140492e-05
2102.1	3.50356951415623e-05
2100.2	4.4457365625456856e-05
2098.3	5.171402465766775e-05
2096.3	5.6234199113103654e-05
2094.4	6.20007894352127e-05
2092.5	6.958456215584035e-05
2090.6	7.402815164952973e-05
2088.6	7.684369182788359e-05
2086.7	9.515189805565024e-05
2084.8	0.00014263053944739526
2082.8	0.00021557134642561276
2080.9	0.00031319505384727836
2079.0	0.0004648317674577262
2077.1	0.0007350415330636908
2075.1	0.001200223955947566
2073.2	0.0018839923541737733
2071.3	0.0026748375858876273
2069.3	0.0033510436528434284
2067.4	0.003732580137420204
2065.5	0.0037925341162711366
2063.6	0.003626923083670387
2061.6	0.003350662643146045
2059.7	0.0030356938502022323
2057.8	0.0027201725744359436
2055.8	0.0024285771453632864
2053.9	0.0021707494079235903
2052.0	0.0019453133180644218
2050.1	0.0017494726572779104
2048.1	0.0015817661956045025
2046.2	0.0014363464158666731
2044.3	0.0013084159982456995
2042.3	0.0011969947224794114
2040.4	0.0011006559524389648
2038.5	0.0010157297110277277
2036.6	0.0009396099312898981
2034.6	0.0008723186784269772
2032.7	0.000811190546269675
2030.8	0.0007542970079430826
2028.8	0.0007053772282052532
2026.9	0.0006612205691730422
2025.0	0.0006169380634472004
2023.1	0.0005792361727011354
2021.1	0.0005485803031041372
2019.2	0.0005145248282247453
2017.3	0.00047499480532137806
2015.3	0.00043496359826519174
2013.4	0.0003975867647775449
2011.5	0.0003633715559670581
2009.6	0.00032890425905170314
2007.6	0.00029502592953559767
2005.7	0.00026588676477754496
2003.8	0.00024166966522099308
2001.8	0.0002197792017932849
1999.9	0.00020035603528093172
1998.0	0.00017879709078504947
1996.1	0.0001524685639101408
1994.1	0.0001279830661273817
1992.2	0.00011177589786072802
1990.3	0.00010106864675210759
1988.3	9.145185907119535e-05
1986.4	8.148566346669265e-05
1984.5	7.086548901125676e-05
1982.6	6.035217094683495e-05
1980.6	5.105634715657132e-05
1978.7	4.6445709273427215e-05
1976.8	4.846170751912675e-05
1974.8	5.157313483748355e-05
1972.9	4.965146435358899e-05
1971.0	4.496706788168216e-05
1969.1	4.175950489742214e-05
1967.1	4.0614273183568046e-05
1965.2	3.7719550704156704e-05
1963.3	3.311190487792992e-05
1961.4	3.2951069635982646e-05
1959.4	3.690126699478582e-05
1957.5	3.948605818429901e-05
1955.6	3.969898153111446e-05
1953.6	3.848566346669265e-05
1951.7	3.815067491837629e-05
1949.8	3.971379562399493e-05
1947.9	4.048873836557672e-05
1945.9	3.950024852590029e-05
1944.0	3.653610935139609e-05
1942.1	3.487716485551384e-05
1940.1	3.63059207640953e-05
1938.2	3.698337800302129e-05
1936.3	3.710008284196677e-05
1934.4	3.863278592661175e-05
1932.4	4.002214804346766e-05
1930.5	3.964421324496856e-05
1928.6	3.875753130939037e-05
1926.6	3.992601237756443e-05
1924.7	4.613752253788801e-05
1922.8	5.619883533940838e-05
1920.9	6.567118074167923e-05
1918.9	7.18268213050046e-05
1917.0	7.264462745480238e-05
1915.1	7.022917011841527e-05
1913.1	6.873436479703716e-05
1911.2	7.02982749378685e-05
1909.3	7.493365820379123e-05
1907.4	8.008038594610398e-05
1905.4	8.241379562399494e-05
1903.5	8.354342380975585e-05
1901.6	8.763010574533405e-05
1899.6	9.456966522099311e-05
1897.7	0.00010014917888991764
1895.8	0.00010208078066371034
1893.9	0.00010169409872813215
1891.9	0.00010181734808245211
1890.0	0.00010099308025924661
1888.1	9.197510842551531e-05
1886.1	6.9067296915355e-05
1884.2	3.4191087178987375e-05
1882.3	1.0008527849520132e-06
1880.4	-1.4107582476487486e-05
1878.4	-6.464241508698386e-06
1876.5	1.4884459821646147e-05
1874.6	4.046893913551974e-05
1872.6	7.29779347984991e-05
1870.7	0.00011373390672969151
1868.8	0.00015127142926757954
1866.9	0.00017912256225330146
1864.9	0.00020472491106671213
1863.0	0.00023328676477754495
1861.1	0.00026235634715657133
1859.1	0.00028726320354758537
1857.2	0.0003029365674187418
1855.3	0.00031034413040300176
1853.4	0.0003188847911895132
1851.4	0.00033005098679401594
1849.5	0.0003389940987281321
1847.6	0.0003482659860630573
1845.6	0.0003593886311583255
1843.7	0.0003623149554115295
1841.8	0.000355622727937235
1839.9	0.00034654618683300034
1837.9	0.00033368258856780855
1836.0	0.0003151152916524535
1834.1	0.00029750513132888255
1832.1	0.0002859085375956337
1830.2	0.0002729305394473953
1828.3	0.00025189933239120894
1826.4	0.00022922580283611904
1824.4	0.00020444045124506599
1822.5	0.00017567361239705667
1820.6	0.0001510228546367136
1818.6	0.0001324680863505677
1816.7	0.00011956162467715998
1814.8	0.00011371678768091223
1812.9	0.00010807014278056623
1810.9	9.482042298133617e-05
1809.0	7.753365820379121e-05
1807.1	6.42305004629404e-05
1805.1	5.613814628916719e-05
1803.2	5.300569173042246e-05
1801.3	5.168576580088686e-05
1799.4	4.747165830125234e-05
1797.4	4.37685005604015e-05
1795.5	4.545969007358313e-05
1793.6	5.250747526923627e-05
1791.6	5.406949466400259e-05
1789.7	4.247261342039854e-05
1787.8	2.8918532235271165e-05
1785.9	1.9560377174601592e-05
1783.9	9.228858242775663e-06
1782.0	-7.709175966108713e-09
1780.1	-4.383836070366959e-06
1778.1	-4.502119779737844e-06
1776.2	4.941635397885056e-06
1774.3	2.2909926416841183e-05
1772.4	3.0557711612494366e-05
1770.4	2.248322693825818e-05
1768.5	1.0508016178548737e-05
1766.6	-3.232829784123641e-06
1764.6	-8.827635105501707e-06
1762.7	1.4300618878221967e-06
1760.8	9.061663661614881e-06
1758.9	3.2953023731786618e-06
1756.9	-6.037878271039469e-06
1755.0	-7.834013936942685e-06
1753.1	2.769163296135579e-06
1751.1	1.2695589883533797e-05
1749.2	5.021665610837516e-06
1747.3	-8.42454071439024e-06
1745.4	-1.1370893231324051e-05
1743.4	-4.597446518200924e-06
1741.5	4.931806442181165e-06
1739.6	8.991311339603264e-06
1737.6	1.5418673553920328e-05
1735.7	3.8151517957214385e-05
1733.8	5.0214200087714766e-05
1731.9	2.6770405925637033e-05
1729.9	-5.167257930900095e-06
1728.0	-2.4940972662150985e-05
1726.1	-3.327880707567856e-05
1724.1	-3.1955952438964964e-05
1722.2	-2.3567360265094287e-05
1720.3	-4.124272696262425e-06
1718.4	1.5615676623945856e-05
1716.4	9.03703523220088e-06
1714.5	-2.0855231226548558e-05
1712.6	-4.6985000730958545e-05
1710.6	-5.588163344866235e-05
1708.7	-5.182969153550022e-05
1706.8	-4.500791871741151e-05
1704.9	-3.643177233078317e-05
1702.9	-7.85826714097776e-06
1701.0	3.411455094780931e-05
1699.1	5.608392378539037e-05
1697.1	5.742464792164118e-05
1695.2	3.828409434238078e-05
1693.3	-3.4918814872570998e-06
1691.4	-3.485576726280397e-05
1689.4	-3.765182008674044e-05
1687.5	-1.1484299010769568e-05
1685.6	2.675298962038857e-05
1683.6	3.0363710345499267e-05
1681.7	7.770137907508589e-07
1679.8	-1.382778129720784e-05
1677.9	-2.7755275084060695e-06
1675.9	8.223244481263053e-06
1674.0	2.505833049071596e-06
1672.1	-5.850514107499688e-06
1670.1	-5.548457677501117e-06
1668.2	-1.2258013742020397e-05
1666.3	-2.453819014667903e-05
1664.4	-2.33667170215877e-05
1662.4	-2.221793284927639e-05
1660.5	-3.3445689781199745e-05
1658.6	-3.942678232054969e-05
1656.6	-1.4916066468495873e-05
1654.7	3.7522464792163644e-05
1652.8	5.981267482091509e-05
1650.9	2.8348189659373147e-05
1648.9	4.5693046147848426e-06
1647.0	6.2715900784559e-06
1645.1	-1.3023536864676007e-06
1643.1	-1.628381657813949e-05
1641.2	-2.0526553286876865e-05
1639.3	-7.075693192339598e-06
1637.4	2.010680766044513e-05
1635.4	3.1971692412650324e-05
1633.5	1.5640821597387867e-05
1631.6	1.0030115491447552e-06
1629.6	1.205837922128553e-06
1627.7	2.629647677988381e-06
1625.8	3.107913844354541e-06
1623.9	2.038185273622124e-06
1621.9	-6.010681740655958e-06
1620.0	-5.986560109156491e-06
1618.1	1.0230826957750502e-05
1616.1	1.0545889576531187e-05
1614.2	-1.3951883436479843e-05
1612.3	-2.9758549778275912e-05
1610.4	-2.699251985770673e-05
1608.4	-2.6423644071926314e-05
1606.5	-3.5589839676429015e-05
1604.6	-4.4008123385799905e-05
1602.6	-4.8701661712392176e-05
1600.7	-5.432640709517079e-05
1598.8	-5.964697626821303e-05
1596.9	-6.294469080454167e-05
1594.9	-6.536368110715851e-05
1593.0	-7.097471370790895e-05
1591.1	-8.405383265922711e-05
1589.1	-0.00010028314896934844
1587.2	-0.00010993185029969298
1585.3	-0.00011011475074314115
1583.4	-0.0001054276740899566
1581.4	-9.74743189903026e-05
1579.5	-7.711265532868775e-05
1577.6	-5.034158179425966e-05
1575.6	-4.554463720091628e-05
1573.7	-5.883736172701147e-05
1571.8	-5.8833287851469275e-05
1569.9	-5.486156620047763e-05
1567.9	-6.616638565372059e-05
1566.0	-8.133031528677941e-05
1564.1	-8.248277861702653e-05
1562.1	-5.206541591540391e-05
1560.2	-4.738872374641283e-06
1558.3	0.0
1556.4	-4.099916183421888e-05
1554.4	-7.405591832756716e-05
1552.5	-8.43945811607622e-05
1550.6	-8.502628526874917e-05
1548.6	-8.187238925978278e-05
1546.7	-7.431830807465528e-05
1544.8	-5.80646654646462e-05
1542.9	-3.5469304614785214e-05
1540.9	-2.0032347351493828e-05
1539.0	-3.482339067296947e-05
1537.1	-6.826857365625468e-05
1535.1	-8.427667267677029e-05
1533.2	-8.637881194873553e-05
1531.3	-9.074423761025295e-05
1529.4	-9.033258125822332e-05
1527.4	-8.082144632327859e-05
1525.5	-6.865190780176418e-05
1523.6	-5.568054188392381e-05
1521.6	-4.918625797963082e-05
1519.7	-5.341031626139104e-05
1517.8	-5.570335266312585e-05
1515.9	-5.4509375761415204e-05
1513.9	-5.306755031431225e-05
1512.0	-4.468834852102739e-05
1510.1	-2.1388372886311678e-05
1508.1	1.3202894595779535e-05
1506.2	2.0244841869304295e-05
1504.3	-1.519662297159031e-05
1502.4	-4.945817942595402e-05
1500.4	-5.887426051362027e-05
1498.5	-5.687800302129546e-05
1496.6	-6.05225914916428e-05
1494.6	-7.301718727157556e-05
1492.7	-7.408797329564853e-05
1490.8	-5.6191818137517834e-05
1488.9	-4.1679123824375156e-05
1486.9	-4.3999400614005263e-05
1485.0	-5.662701135422256e-05
1483.1	-6.629117002095414e-05
1481.1	-6.615846693630916e-05
1479.2	-5.6993996393937954e-05
1477.3	-3.957324204473473e-05
1475.4	-1.750455630817227e-05
1473.4	-5.689786072803765e-06
1471.5	-1.554733687442135e-05
1469.6	-3.0233287851469284e-05
1467.6	-2.385379367477223e-05
1465.7	-3.9451781102297885e-07
1463.8	1.3918010818186161e-05
1461.9	1.0105794064616712e-05
1459.9	1.1020271916573066e-05
1458.0	2.696227766678025e-05
1456.1	2.3360615954387803e-05
1454.1	-2.579826031869813e-05
1452.2	-7.938736903659665e-05
1450.3	-8.377988889430342e-05
1448.4	-5.8214317041079894e-05
1446.4	-4.658020076994302e-05
1444.5	-4.601315238048829e-05
1442.6	-4.508927927488914e-05
1440.6	-3.793875054821893e-05
1438.7	-1.4795599629647811e-05
1436.8	8.502948199403185e-07
1434.9	-1.0930110618390999e-05
1432.9	-2.4484523171385464e-05
1431.0	-2.316798401637353e-05
1429.1	-2.2047497685298017e-05
1427.1	-2.7146084498806133e-05
1425.2	-2.5787846596169784e-05
1423.3	-1.0347955752643682e-05
1421.4	8.842546659519363e-06
1419.4	1.2053764436430864e-05
1417.5	-4.777150236343357e-06
1415.6	-2.2091774280005877e-05
1413.6	-2.8332142683105117e-05
1411.7	-2.987745723892598e-05
1409.8	-3.1883524194727345e-05
1407.9	-3.0347663369231548e-05
1405.9	-2.308209151600801e-05
1404.0	-1.707523512499396e-05
1402.1	-1.2244422786413965e-05
1400.1	-3.387515228302744e-06
1398.2	1.4895667852443065e-06
1396.3	-1.5346181959943164e-06
1394.4	-5.541557428975286e-06
1392.4	-9.014940792359061e-06
1390.5	-8.012031577408552e-06
1388.6	-3.954334584084637e-06
1386.6	-8.783962769845591e-06
1384.7	-2.067712587105893e-05
1382.8	-2.8949636957263318e-05
1380.9	-2.769297792505239e-05
1378.9	-1.9714170849373828e-05
1377.0	-1.4613610447833955e-05
1375.1	-1.4813050046294063e-05
1373.1	-1.3512343453048149e-05
1371.2	-7.485561132498445e-06
1369.3	-1.5233127040592938e-06
1367.4	2.0314555820866176e-06
1365.4	9.035797475756517e-06
1363.5	1.3537542030115469e-05
1361.6	4.445499731981818e-06
1359.6	-7.168066858340258e-06
1357.7	-5.649242239656963e-06
1355.8	8.794805321378086e-06
1353.9	3.330693923298084e-05
1351.9	5.940882997904585e-05
1350.0	6.35073339505872e-05
1348.1	3.923397007943083e-05
1346.1	8.53814628916719e-06
1344.2	-1.1948140928804652e-05
1342.3	-2.1909205204424765e-05
1340.4	-2.1716997222357608e-05
1338.4	-1.5129920569173066e-05
1336.5	-1.2412986696554772e-05
1334.6	-1.5189196432922377e-05
1332.6	-1.4806773549047317e-05
1330.7	-1.4786287217971834e-05
1328.8	-2.2543340967789092e-05
1326.9	-3.581292334681546e-05
1324.9	-4.95779347984991e-05
1323.0	-6.170338677452367e-05
1321.1	-6.83801374202037e-05
1319.1	-6.411354709809464e-05
1317.2	-5.4861458993226465e-05
1315.3	-4.9062248428439176e-05
1313.4	-4.6047829053165055e-05
1311.4	-4.629881584718093e-05
1309.5	-4.685358413332684e-05
1307.6	-4.378589250036547e-05
1305.6	-4.354255153257639e-05
1303.7	-5.210417620973636e-05
1301.8	-6.194830661273818e-05
1299.9	-6.262663612884363e-05
1297.9	-5.4904570927342723e-05
1296.0	-4.742167048389455e-05
1294.1	-4.384751717752546e-05
1292.1	-4.406233127040593e-05
1290.2	-4.738132157302276e-05
1288.3	-5.199195945616686e-05
1286.4	-5.4133804395497306e-05
1284.4	-5.173002290336728e-05
1282.5	-4.9569187661420006e-05
1280.6	-5.295626431460456e-05
1278.6	-5.927415330636908e-05
1276.7	-6.470685639101408e-05
1274.8	-6.435626431460455e-05
1272.9	-6.251709955655183e-05
1270.9	-6.599850397154134e-05
1269.0	-6.902782028166268e-05
1267.1	-6.724610399103357e-05
1265.1	-6.4853355099654e-05
1263.2	-6.36312898981531e-05
1261.3	-6.196052336630769e-05
1259.4	-5.922056917304225e-05
1257.4	-5.854681058427951e-05
1255.5	-6.018676477754496e-05
1253.6	-5.910465376930948e-05
1251.6	-5.205674187417766e-05
1249.7	-4.392632425320403e-05
1247.8	-3.9059027337849025e-05
1245.9	-3.6884874031479944e-05
1243.9	-3.60430290921495e-05
1242.0	-3.7027425564056335e-05
1240.1	-4.07643048584377e-05
1238.1	-4.555784318502997e-05
1236.2	-4.511450221724087e-05
1234.3	-4.116887578578041e-05
1232.4	-4.4640348910871786e-05
1230.4	-5.719015155206861e-05
1228.5	-6.830993128989816e-05
1226.6	-7.013617270113541e-05
1224.6	-6.39555577213586e-05
1222.7	-5.1860128648701326e-05
1220.8	-3.9384479313873586e-05
1218.9	-3.6347205301885866e-05
1216.9	-4.3320569173042246e-05
1215.0	-4.793577798352906e-05
1213.1	-4.046391014083135e-05
1211.1	-3.3355163003752255e-05
1209.2	-4.036887578578042e-05
1207.3	-5.038030310413722e-05
1205.4	-4.924760001949222e-05
1203.4	-3.976469957604405e-05
1201.5	-2.6899293406754053e-05
1199.6	-1.9195117197017683e-05
1197.6	-2.1971555967058128e-05
1195.7	-2.5108435261439498e-05
1193.8	-2.4323249354319962e-05
1191.9	-3.221678768091223e-05
1189.9	-4.768676477754495e-05
1188.0	-5.6995511914624045e-05
1186.1	-5.5979513668924514e-05
1184.1	-4.9566507480142286e-05
1182.2	-4.165767750109645e-05
1180.3	-4.178888455728279e-05
1178.4	-5.279850397154135e-05
1176.4	-6.445634715657132e-05
1174.5	-7.273199649139905e-05
1172.6	-7.657533745918815e-05
1170.6	-7.255784318502997e-05
1168.7	-6.567037181423908e-05
1166.8	-6.209850397154134e-05
1164.9	-6.0566195604502704e-05
1162.9	-6.268786608839725e-05
1161.0	-6.941182203596315e-05
1159.1	-7.30996881243604e-05
1157.1	-7.037005993859947e-05
1155.2	-5.8543423809755856e-05
1153.3	-3.623120705618635e-05
1151.4	-2.03547682861459e-05
1149.4	-2.54095365722918e-05
1147.5	-3.777604405243409e-05
1145.6	-4.235429072657279e-05
1143.6	-4.6716227279372356e-05
1141.7	-5.753947663369232e-05
1139.8	-6.720268018127771e-05
1137.9	-7.105098679401588e-05
1135.9	-7.083916475805272e-05
1134.0	-6.79866819355782e-05
1132.1	-6.650268018127772e-05
1130.1	-6.730118415281906e-05
1128.2	-6.724681058427951e-05
1126.3	-7.455784318502997e-05
1124.4	-8.835595243896497e-05
1122.4	-9.072703084644997e-05
1120.5	-8.508518590711952e-05
1118.6	-8.601182203596314e-05
1116.6	-8.621867842697724e-05
1114.7	-7.983577798352906e-05
1112.8	-7.453727401198774e-05
1110.9	-7.078400175430047e-05
1108.9	-6.272505725841821e-05
1107.0	-5.659810925393499e-05
1105.1	-6.0171555967058134e-05
1103.1	-6.21765216120072e-05
1101.2	-5.310614979776813e-05
1099.3	-4.783349251985771e-05
1097.4	-5.520078943521271e-05
1095.4	-6.200346961649043e-05
1093.5	-5.71757321767945e-05
1091.6	-4.5301578870425415e-05
1089.6	-3.590268018127771e-05
1087.7	-3.7852088104868185e-05
1085.8	-4.863498854831636e-05
1083.9	-5.535933921348862e-05
1081.9	-5.330764582622679e-05
1080.0	-5.03776229228595e-05
1078.1	-5.348408459626724e-05
1076.1	-6.70103260075045e-05
1074.2	-8.662025729740264e-05
1072.3	-9.141915598655035e-05
1070.4	-7.695981677306173e-05
1068.4	-6.351529165245358e-05
1066.5	-6.161946786218994e-05
1064.6	-6.728865552360996e-05
1062.6	-7.158597534233224e-05
1060.7	-6.881450221724088e-05
1058.8	-6.55563471565713e-05
1056.9	-6.673964231762584e-05
1054.9	-6.64666731640758e-05
1053.0	-5.845185907119535e-05
1051.1	-4.469062911164172e-05
1049.1	-3.7044607962574916e-05
1047.2	-4.182900443448175e-05
1045.3	-5.410236830563812e-05
1043.4	-6.822860971687539e-05
1041.4	-7.908605818429901e-05
1039.5	-7.825603528093172e-05
1037.6	-6.540166171239218e-05
1035.6	-5.070583792212855e-05
1033.7	-3.849401588616539e-05
1031.8	-2.8293226450952677e-05
1029.9	-2.611757711612494e-05
1027.9	-3.150087227717946e-05
1026.0	-3.114878417231128e-05
1024.1	-1.6665489011256754e-05
1022.1	4.937980605233665e-06
1020.2	1.4114814092880467e-05
1018.3	8.08211100823547e-06
1016.4	4.301496028458653e-06
1014.4	5.075254617221387e-06
1012.5	-5.33492519857707e-07
1010.6	-1.2907645826226789e-05
1008.6	-2.8243818527362206e-05
1006.7	-4.366060620827444e-05
1004.8	-5.82070220749476e-05
1002.9	-6.820095511914623e-05
1000.9	-7.157093221577893e-05
999.0	-7.491088640904438e-05
997.1	-8.397101505774571e-05
995.1	-9.838701330344524e-05
993.2	-0.00011063492519857704
991.3	-0.00010901782564202522
989.4	-9.515888114614295e-05
987.4	-7.690332342478436e-05
985.5	-6.313980800155936e-05
983.6	-6.196226792066661e-05
981.6	-7.212995955362796e-05
979.7	-8.366683884800933e-05
977.8	-9.096345207348566e-05
975.9	-8.914068027873882e-05
973.9	-8.149773402855609e-05
972.0	-8.29376882218215e-05
970.1	-8.95947419716388e-05
968.1	-8.94897763266897e-05
966.2	-9.083500804054384e-05
964.3	-0.00010353162126602015
962.4	-0.0001098107402173383
960.4	-9.574872082257197e-05
958.5	-8.272736221431701e-05
956.6	-8.692547146825201e-05
954.6	-9.551223624579695e-05
952.7	-9.82069587252083e-05
950.8	-9.3948014229326e-05
948.9	-8.514304858437693e-05
946.9	-7.872058866526968e-05
945.0	-7.8523580722187e-05
943.1	-7.729844062180203e-05
941.1	-6.78592758637493e-05
939.2	-5.482925296038203e-05
937.3	-5.0211758686223855e-05
935.4	-5.581136396861749e-05
933.4	-5.908283709370886e-05
931.5	-5.283531991618339e-05
929.6	-4.9898835339408385e-05
927.6	-5.5045957799327506e-05
925.7	-6.160332342478435e-05
923.8	-7.060064324350663e-05
921.9	-7.422917011841527e-05
919.9	-6.0383938404561164e-05
918.0	-4.470978509819209e-05
916.1	-4.427550314312167e-05
914.1	-5.4993309292919435e-05
912.2	-6.438645290190535e-05
910.3	-6.673247405097217e-05
908.4	-6.625911017981578e-05
906.4	-6.038535159105306e-05
904.5	-5.030355245845718e-05
902.6	-4.6843423809755856e-05
900.6	-4.489441060377174e-05
898.7	-3.738992251839578e-05
896.8	-2.884807757906534e-05
894.9	-3.3443423809755856e-05
892.9	-5.1383295161054526e-05
891.0	-5.2356264314604544e-05
889.1	-2.5900706593245943e-05
887.1	-4.3113444763900465e-06
885.2	-1.1029920569173048e-06
883.3	-1.4805321378100528e-06
881.4	-5.844359436674631e-06
879.4	-2.6157282783490086e-05
877.5	-4.459684225914917e-05
875.6	-3.8338292480873245e-05
873.6	-2.4498026411968232e-05
871.7	-2.5110243165537746e-05
869.8	-3.5598503971541345e-05
867.9	-4.722364407192632e-05
865.9	-6.261757711612494e-05
864.0	-8.522671897081038e-05
862.1	-9.352403878953267e-05
860.1	-6.99992105647873e-05
858.2	-3.508959115052874e-05
856.3	-1.723750304566055e-05
854.4	-2.8566112762535946e-05
852.4	-5.248100969738317e-05
850.5	-6.375019735880317e-05
848.6	-5.3796925101115935e-05
846.6	-3.440606695580138e-05
844.7	-4.001450221724087e-05
842.8	-5.532175332586131e-05
840.9	-3.680228546367137e-05
838.9	-2.8021192924321427e-05
837.0	-6.510519467862192e-05
835.1	-0.00010119156473856048
833.1	-0.00011409582379026364
831.2	-0.00012131450221724087
829.3	-0.00012838794893036402
827.4	-0.0001362370449783149
825.4	-0.00013870961941425856
823.5	-0.00013423010574533403
821.6	-0.00014114649870863993
819.6	-0.00016517242824423762
817.7	-0.00019237172165099164
815.8	-0.00021854587495736074
813.9	-0.00023126904146971393
811.9	-0.00022771497977681397
810.0	-0.00024748487403147997
808.1	-0.00028898495687344674
806.1	-0.00029870222211393204
804.2	-0.00029049008820232925
802.3	-0.00032529276838360704
800.4	-0.00039393241070123284
