3997.9	-3.718266653671848e-05
3996.0	-4.554000779689099e-05
3994.1	-4.7292763510550174e-05
3992.1	-4.6415817942595384e-05
3990.2	-4.468485453925247e-05
3988.3	-4.654505628380683e-05
3986.3	-5.197681886847619e-05
3984.4	-5.6600672481847864e-05
3982.5	-5.908060523366307e-05
3980.6	-6.145342819550704e-05
3978.6	-6.59467813459383e-05
3976.7	-7.021628088299791e-05
3974.8	-6.708990302616831e-05
3972.8	-5.5868110715852055e-05
3970.9	-4.8084854539252465e-05
3969.0	-4.9495750694410605e-05
3967.1	-5.0800799181326444e-05
3965.1	-4.5639798255445646e-05
3963.2	-4.356205350616441e-05
3961.3	-5.068716924126504e-05
3959.3	-5.402065688806589e-05
3957.4	-4.5974674723454026e-05
3955.5	-4.023912577359779e-05
3953.6	-4.625759465912967e-05
3951.6	-5.0597519614053896e-05
3949.7	-4.3198908435261466e-05
3947.8	-4.0087549339700815e-05
3945.8	-5.241047707226744e-05
3943.9	-6.464110423468644e-05
3942.0	-6.546668291018958e-05
3940.1	-6.304855026558159e-05
3938.1	-6.488729594074364e-05
3936.2	-6.543420398616052e-05
3934.3	-5.478893816090838e-05
3932.3	-3.93825447102968e-05
3930.4	-3.71054724428634e-05
3928.5	-4.438607767652651e-05
3926.6	-4.841132011110572e-05
3924.6	-5.403071487744261e-05
3922.7	-5.7235763364358504e-05
3920.8	-5.138910871789877e-05
3918.8	-5.217640465864242e-05
3916.9	-6.378797329564841e-05
3915.0	-6.9874046099118e-05
3913.1	-7.122675795526535e-05
3911.1	-8.14438380195897e-05
3909.2	-8.961565225866185e-05
3907.3	-7.481527703328305e-05
3905.3	-5.245886652697243e-05
3903.4	-4.7634637688221846e-05
3901.5	-5.303085132303499e-05
3899.6	-5.8103713269333946e-05
3897.6	-6.232343940353784e-05
3895.7	-6.15332391209006e-05
3893.8	-5.3854276107402177e-05
3891.8	-4.7393445738511814e-05
3889.9	-4.830800155937833e-05
3888.0	-5.012579796306231e-05
3886.1	-5.10716144437406e-05
3884.1	-5.5415744846742455e-05
3882.2	-5.9818561473612343e-05
3880.3	-6.297219921056477e-05
3878.3	-6.17432532527655e-05
3876.4	-5.281813751766481e-05
3874.5	-4.58242824423761e-05
3872.6	-4.384687880707567e-05
3870.6	-4.274170849373807e-05
3868.7	-4.783135812094937e-05
3866.8	-5.499458603381918e-05
3864.8	-5.103160664684961e-05
3862.9	-4.293614833585118e-05
3861.0	-4.059180351834705e-05
3859.1	-3.585166902197757e-05
3857.1	-2.289526338872369e-05
3855.2	-1.3586277471858317e-05
3853.3	-2.1613922323473643e-05
3851.3	-3.8180210516056915e-05
3849.4	-4.517455777008927e-05
3847.5	-4.379609180839137e-05
3845.6	-4.556159543881878e-05
3843.6	-4.858116076214612e-05
3841.7	-4.249744651820095e-05
3839.8	-3.0123663564153992e-05
3837.8	-2.9812055942692907e-05
3835.9	-3.9448399200818756e-05
3834.0	-4.066130792846354e-05
3832.1	-4.1288061010671994e-05
3830.1	-4.9500511670971174e-05
3828.2	-5.715208810486822e-05
3826.3	-6.198982505725844e-05
3824.3	-5.833888212075449e-05
3822.4	-4.480073095853036e-05
3820.5	-3.1187944057307166e-05
3818.6	-1.9125681009697572e-05
3816.6	-1.704440329418648e-05
3814.7	-3.5766190731446055e-05
3812.8	-5.8742707470396205e-05
3810.8	-6.0462394620145295e-05
3808.9	-4.4894415476828635e-05
3807.0	-3.950426392476008e-05
3805.1	-4.368638467910934e-05
3803.1	-3.493670386433417e-05
3801.2	-2.6868174065591355e-05
3799.3	-3.345701963841923e-05
3797.3	-3.8928658447444006e-05
3795.4	-4.238305150821111e-05
3793.5	-4.8548467423614825e-05
3791.6	-5.165818429901077e-05
3789.6	-5.2159446420739744e-05
3787.7	-5.170143267871935e-05
3785.8	-4.8852253788801714e-05
3783.8	-4.277164855513862e-05
3781.9	-3.8658145314555834e-05
3780.0	-4.231367867063015e-05
3778.1	-5.039588226694603e-05
3776.1	-5.703218654061696e-05
3774.2	-5.547232103698648e-05
3772.3	-4.4100258272014006e-05
3770.3	-3.6120286535743916e-05
3768.4	-4.146340821597393e-05
3766.5	-5.3147083475464196e-05
3764.6	-5.715335022659718e-05
3762.6	-4.7425247307636095e-05
3760.7	-3.029937624872089e-05
3758.8	-1.9672452609522002e-05
3756.8	-1.939012231372744e-05
3754.9	-1.6553106573753717e-05
3753.0	-6.079075093806587e-06
3751.1	-4.671214853077532e-06
3749.1	-1.1387661420009113e-05
3747.2	-8.499230057015025e-06
3745.3	-9.260572096876467e-06
3743.3	-2.651765508503482e-05
3741.4	-3.670725110862052e-05
3739.5	-2.8722435553823057e-05
3737.6	-1.612900443448168e-05
3735.6	-8.288494712733411e-06
3733.7	-1.2635232201159874e-05
3731.8	-2.6428790019979447e-05
3729.8	-3.356626870035576e-05
3727.9	-2.7846493835583094e-05
3726.0	-1.8344559232006297e-05
3724.1	-1.4132064714195245e-05
3722.1	-1.905326738463033e-05
3720.2	-2.92533502265971e-05
3718.3	-3.485297012816138e-05
3716.3	-3.052352224550462e-05
3714.4	-2.2935812094927136e-05
3712.5	-2.2256936796452597e-05
3710.6	-2.8487646800838258e-05
3708.6	-3.597064470542378e-05
3706.7	-3.9981998927927486e-05
3704.8	-3.715217094683499e-05
3702.8	-3.078902587593202e-05
3700.9	-2.7164246381755234e-05
3699.0	-2.540214901807907e-05
3697.1	-2.2025286292091034e-05
3695.1	-1.7694240046781345e-05
3693.2	-1.3835977778860664e-05
3691.3	-8.0655182495981e-06
3689.3	-1.5889137956241967e-06
3687.4	-2.9605964621606806e-06
3685.5	-1.5421967740363593e-05
3683.6	-2.73819550704157e-05
3681.6	-2.7372111495541188e-05
3679.7	-1.5347000633497406e-05
3677.8	-9.892061790360432e-07
3675.8	-5.858047853418789e-07
3673.9	-8.558793431119507e-06
3672.0	-8.441416110326191e-06
3670.1	-8.04069977096639e-06
3668.1	-1.4158320744603195e-05
3666.2	-1.8571102772769403e-05
3664.3	-1.9736854929097028e-05
3662.3	-2.0468154573363855e-05
3660.4	-1.901956532332735e-05
3658.5	-1.1443969592125154e-05
3656.6	-3.3719068271527626e-06
3654.6	-1.8178889917645747e-06
3652.7	2.2481994054869645e-06
3650.8	1.3820130597923968e-05
3648.8	1.6809863067101952e-05
3646.9	6.084586521124479e-06
3645.0	-3.998913308318308e-06
3643.1	-1.0963949125286323e-05
3641.1	-1.6911402953072454e-05
3639.2	-1.5662896545002707e-05
3637.3	-1.0105345743384849e-05
3635.3	-1.0546659519516613e-05
3633.4	-1.1479981482383922e-05
3631.5	-2.2193655279957028e-06
3629.6	8.478188197456123e-06
3627.6	8.907051313288743e-06
3625.7	-2.0296671702158464e-06
3623.8	-1.5859743677208748e-05
3621.8	-1.391944349690569e-05
3619.9	5.280931728473214e-06
3618.0	1.925926611763551e-05
3616.1	1.8024223965693595e-05
3614.1	1.365186394425218e-05
3612.2	1.4609750986794027e-05
3610.3	1.4692417523512469e-05
3608.3	8.75838409434231e-06
3606.4	-1.4437161931679556e-06
3604.5	-1.070454656205836e-05
3602.6	-8.782291311339592e-06
3600.6	7.867350518980538e-06
3598.7	2.4394863798060516e-05
3596.8	2.4124438380195847e-05
3594.8	7.613079284635291e-06
3592.9	-4.114097753520795e-06
3591.0	5.590107694556756e-06
3589.1	2.4116987476243757e-05
3587.1	3.471193898932801e-05
3585.2	3.625296038204767e-05
3583.3	3.554408654548998e-05
3581.3	3.774387700404463e-05
3579.4	3.837816383217191e-05
3577.5	3.088653574387213e-05
3575.6	1.7645602066176094e-05
3573.6	8.348589250036537e-06
3571.7	1.211737244773645e-05
3569.8	2.147222844890598e-05
3567.8	2.3879040982408256e-05
3565.9	1.9729862092490616e-05
3564.0	1.4406768675990437e-05
3562.1	9.857044003703497e-06
3560.1	6.130456605428581e-06
3558.2	5.503406266751121e-06
3556.3	7.814302421909248e-06
3554.3	7.1472004288290015e-06
3552.4	2.3876711661225054e-06
3550.5	-1.8077432873641578e-06
3548.6	-5.509916670727447e-07
3546.6	5.9007114663027905e-06
3544.7	7.355655182495944e-06
3542.8	1.644676185371069e-06
3540.8	3.128522001851752e-06
3538.9	1.7581613956434872e-05
3537.0	3.0617962087617556e-05
3535.1	3.181051605672238e-05
3533.1	2.0008118512743038e-05
3531.2	-9.877588811461449e-07
3529.3	-1.165326251157352e-05
3527.3	-2.358900638370435e-06
3525.4	1.0271599824569934e-05
3523.5	1.6524019297305188e-05
3521.6	2.160248038594609e-05
3519.6	2.8323137274011978e-05
3517.7	3.195330149602846e-05
3515.8	2.4378417231129084e-05
3513.8	1.1142405340870335e-05
3511.9	9.80214414502217e-06
3510.0	1.9682413137761298e-05
3508.1	2.2353973977876318e-05
3506.1	1.4083675259490272e-05
3504.2	6.841352760586703e-06
3502.3	1.1481950197358805e-05
3500.3	2.208413819989278e-05
3498.4	2.6971180741679242e-05
3496.5	3.169915696116172e-05
3494.6	4.0649388431362985e-05
3492.6	4.096453389211051e-05
3490.7	3.0108917694069492e-05
3488.8	2.122187515228302e-05
3486.8	2.0739418157009885e-05
3484.9	2.409709565810633e-05
3483.0	2.265982164611861e-05
3481.1	1.4796296476779886e-05
3479.1	9.939081916085952e-06
3477.2	1.4094361873203052e-05
3475.3	1.81851907801764e-05
3473.3	1.5658013742020364e-05
3471.4	1.4163398469860138e-05
3469.5	1.464951513084158e-05
3467.6	1.049469811412699e-05
3465.6	6.5822035963159765e-06
3463.7	1.0445855465133274e-05
3461.8	2.0534160128648697e-05
3459.8	2.8724526095219528e-05
3457.9	2.8774294625018267e-05
3456.0	2.1638745675162024e-05
3454.1	1.30036596657083e-05
3452.1	1.2762263047609764e-05
3450.2	2.3752965255104523e-05
3448.3	3.488127771551093e-05
3446.3	3.402519857706739e-05
3444.4	2.137509380634472e-05
3442.5	8.674757565420787e-06
3440.6	2.651366892451635e-06
3438.6	1.128775400808923e-06
3436.7	3.1148920617903566e-06
3434.8	8.605594269285125e-06
3432.8	1.5755362799083867e-05
3430.9	1.9026923639198867e-05
3429.0	1.5804332147556153e-05
3427.1	1.5295960235855953e-05
3425.1	2.229217387066907e-05
3423.2	2.6940680278738844e-05
3421.3	2.2649052190439056e-05
3419.3	1.6883002777642412e-05
3417.4	1.8819477608303686e-05
3415.5	2.2516154183519318e-05
3413.6	1.8330373763461816e-05
3411.6	1.285881292334681e-05
3409.7	1.3696423176258469e-05
3407.8	1.999469811412699e-05
3405.8	2.4806856391014075e-05
3403.9	2.1660874226402217e-05
3402.0	1.7691374689342623e-05
3400.1	2.141682666536718e-05
3398.1	2.4023936455338428e-05
3396.2	2.10703815603528e-05
3394.3	2.1243540763120697e-05
3392.3	2.2182413137761298e-05
3390.4	1.872473563666487e-05
3388.5	2.0038618975683436e-05
3386.6	2.6136557672628032e-05
3384.6	2.6371307441157834e-05
3382.7	2.561522830271429e-05
3380.8	2.9752838555625937e-05
3378.8	3.1628984942254265e-05
3376.9	3.0111441937527403e-05
3375.0	3.065536279908386e-05
3373.1	2.956280882997903e-05
3371.1	2.404387700404463e-05
3369.2	2.1805340870327948e-05
3367.3	2.6525871058915245e-05
3365.3	3.1602480385946097e-05
3363.4	3.401796208761755e-05
3361.5	3.829032210905901e-05
3359.6	4.031165147897276e-05
3357.6	3.5136767214073376e-05
3355.7	3.076693143608984e-05
3353.8	3.286360801130548e-05
3351.8	4.1623809755859856e-05
3349.9	5.2556834462258166e-05
3348.0	5.24824131377613e-05
3346.1	3.838918668680862e-05
3344.1	2.2527722820525303e-05
3342.2	1.2242741581794259e-05
3340.3	1.3560620827445041e-05
3338.3	2.7293182593440853e-05
3336.4	3.687896301349837e-05
3334.5	3.5593645533843376e-05
3332.6	3.696062082744504e-05
3330.6	4.382128551240192e-05
3328.7	4.754009063885775e-05
3326.8	4.7171054042200666e-05
3324.8	4.524387700404463e-05
3322.9	4.1077364650845455e-05
3321.0	3.8205803810730444e-05
3319.1	3.7960157887042534e-05
3317.1	3.4239627698455234e-05
3315.2	3.161703620681252e-05
3313.3	3.8319560450270445e-05
3311.3	4.503378003021296e-05
3309.4	4.266095706836898e-05
3307.5	3.868354856001168e-05
3305.6	3.802540811851275e-05
3303.6	3.740075532381462e-05
3301.7	3.190580381073045e-05
3299.8	2.471417572243068e-05
3297.8	2.557484040738755e-05
3295.9	3.463550509234442e-05
3294.0	4.2718761268943994e-05
3292.1	4.562713318064421e-05
3290.1	4.053091954583109e-05
3288.2	3.0348925490960474e-05
3286.3	2.9046401247502563e-05
3284.3	3.929743189903026e-05
3282.4	4.6099956142488176e-05
3280.5	4.6536767214073375e-05
3278.6	4.572667024024169e-05
3276.6	3.6402816626870016e-05
3274.7	2.1645139125773585e-05
3272.8	1.52824131377613e-05
3270.8	1.7303742507675048e-05
3268.9	2.1985736562545684e-05
3267.0	2.624892549096047e-05
3265.1	3.091590078456214e-05
3263.1	3.539124798986404e-05
3261.2	3.3002144145022165e-05
3259.3	2.392978412358072e-05
3257.3	1.9909716875395927e-05
3255.4	2.5497558598508845e-05
3253.5	2.7734369670094034e-05
3251.6	2.3209716875395926e-05
3249.6	1.7916027484040728e-05
3247.7	8.349515130841572e-06
3245.8	-2.3233078310023924e-06
3243.8	-5.952209931289901e-06
3241.9	-4.623770771404919e-06
3240.0	5.536377369523782e-07
3238.1	8.654899858681346e-06
3236.1	8.525198577067378e-06
3234.2	-1.227094196189274e-06
3232.3	-7.171015057745737e-06
3230.3	-4.4684908142878044e-06
3228.4	4.055942692851217e-07
3226.5	3.512401929730454e-07
3224.6	-5.8211198284684e-06
3222.6	-1.6608162370254863e-05
3220.7	-2.8621582768870917e-05
3218.8	-3.137307636080114e-05
3216.8	-2.558775888114614e-05
3214.9	-2.3637990351347402e-05
3213.0	-2.543546610788949e-05
3211.1	-2.687812484771698e-05
3209.1	-2.7600716339359663e-05
3207.2	-2.3709088251059895e-05
3205.3	-2.1235003167486966e-05
3203.3	-3.153075386189758e-05
3201.4	-4.898258369475171e-05
3199.5	-5.704451050143757e-05
3197.6	-4.994244919838215e-05
3195.6	-4.2725705374981727e-05
3193.7	-4.919301690950734e-05
3191.8	-6.067454802397544e-05
3189.8	-6.743601189025877e-05
3187.9	-7.2571560840115e-05
3186.0	-7.75631889284148e-05
3184.1	-8.092637785682958e-05
3182.1	-8.746823741533062e-05
3180.2	-9.571468252034502e-05
3178.3	-9.755149359193022e-05
3176.3	-9.622259149164271e-05
3174.4	-9.638864090443936e-05
3172.5	-9.52241898542956e-05
3170.6	-9.438910384484186e-05
3168.6	-9.744817016714587e-05
3166.7	-0.00010047328590224647
3164.8	-0.00010215481701671458
3162.8	-0.0001061957506944106
3160.9	-0.00010846811071585205
3159.0	-0.00010489907411919498
3157.1	-0.00010433714731250913
3155.1	-0.00010929701281613957
3153.2	-0.00010907867063008624
3151.3	-0.00010654770722674334
3149.3	-0.00011103003752253789
3147.4	-0.00011816133716680474
3145.5	-0.00012273748355343307
3143.6	-0.0001266199405487062
3141.6	-0.0001246204034891087
3139.7	-0.00011820538472783977
3137.8	-0.00012031960430778227
3135.8	-0.00013023336094732227
3133.9	-0.00013663289800691975
3132.0	-0.00013988266653671848
3130.1	-0.0001431257882169485
3128.1	-0.0001454015983626529
3126.2	-0.00014315103065152767
3124.3	-0.00013866066468495687
3122.3	-0.00013900584766824228
3120.4	-0.000147855616198041
3118.5	-0.00015821960430778228
3116.6	-0.00015666020174455437
3114.6	-0.00014437236002144148
3112.7	-0.00014116857365625458
3110.8	-0.00015269907411919498
3108.8	-0.00016413336094732225
3106.9	-0.00016764884264899372
3105.0	-0.00017293336094732225
3103.1	-0.0001837057209687637
3101.1	-0.00018606133716680474
3099.2	-0.00017436133716680475
3097.3	-0.00016369608693533454
3095.3	-0.00016489482481360556
3093.4	-0.00017042200185176157
3091.5	-0.0001733651235319916
3089.6	-0.00017021203157740854
3087.6	-0.00015768611666098142
3085.7	-0.00014332923834121144
3083.8	-0.0001385116953364846
3081.8	-0.00014210837191170017
3079.9	-0.00014728451829832854
3078.0	-0.00015193508600945375
3076.1	-0.00015583920861556456
3074.1	-0.00015657601968714974
3072.2	-0.00015319402563227912
3070.3	-0.00015065136689245163
3068.3	-0.00014998153111446812
3066.4	-0.00015093176258466933
3064.5	-0.0001524505677111252
3062.6	-0.00015105973880415185
3060.6	-0.00014575847668242287
3058.7	-0.00014173129964426687
3056.8	-0.00014080538472783976
3054.8	-0.00013943176258466935
3052.9	-0.0001360388723746406
3051.0	-0.00013344930558939624
3049.1	-0.00013390033624092394
3047.1	-0.00013696604941279664
3045.2	-0.0001407305004629404
3043.3	-0.0001416873787827104
3041.3	-0.00013772877540080893
3039.4	-0.0001359752205058233
3037.5	-0.0001362589396228254
3035.6	-0.00012812511573510063
3033.6	-0.0001153494322888748
3031.7	-0.00010769461527216024
3029.8	-0.00010728578042005749
3027.8	-0.0001118079089712977
3025.9	-0.00011553634813118271
3024.0	-0.00011631375663953999
3022.1	-0.00010864013449636958
3020.1	-9.16799327518152e-05
3018.2	-8.469587739388918e-05
3016.3	-9.889461527216021e-05
3014.3	-0.00011114312168023002
3012.4	-0.00010345023147020126
3010.5	-9.064564592368795e-05
3008.6	-8.570172506213148e-05
3006.6	-8.175401783538813e-05
3004.7	-7.569541445348668e-05
3002.8	-7.250126212172896e-05
3000.8	-7.568704254178647e-05
2998.9	-8.288704254178645e-05
2997.0	-8.790963403342917e-05
2995.1	-8.540963403342917e-05
2993.1	-7.623933531504313e-05
2991.2	-6.847614638662832e-05
2989.3	-6.712259149164272e-05
2987.3	-6.930837191170022e-05
2985.4	-7.103807319331418e-05
2983.5	-7.032591491642707e-05
2981.6	-6.324724428634082e-05
2979.6	-5.0573622143170415e-05
2977.7	-4.182259149164271e-05
2975.8	-3.7087042541786465e-05
2973.8	-2.9700462940402515e-05
2971.9	-2.4756542078846056e-05
2970.0	-2.66552799571171e-05
2968.1	-2.972099312898982e-05
2966.1	-2.8377535207835874e-05
2964.2	-2.577088835826715e-05
2962.3	-2.873281516495298e-05
2960.3	-3.284783392622192e-05
2958.4	-3.3130627162418986e-05
2956.5	-3.7367438234004196e-05
2954.6	-4.1467901174406705e-05
2952.6	-3.278969348472297e-05
2950.7	-1.8740724136250668e-05
2948.8	-1.2383382876078163e-05
2946.8	-1.2776273086106907e-05
2944.9	-1.3723980312850252e-05
2943.0	-1.3336138589737345e-05
2941.1	-1.112238195019736e-05
2939.1	-5.55254617221383e-06
2937.2	1.9964231762584656e-06
2935.3	7.10525802836119e-06
2933.3	9.263861410262652e-06
2931.4	1.102452609521953e-05
2929.5	1.1851703133375558e-05
2927.6	1.0870508259831387e-05
2925.6	9.924063154817014e-06
2923.7	1.1203995906632225e-05
2921.8	1.4570508259831386e-05
2919.8	1.4957887042541782e-05
2917.9	1.1997558598508839e-05
2916.0	1.1317625846693622e-05
2914.1	1.55193509088251e-05
2912.1	2.2361673407728663e-05
2910.2	2.7780941474587006e-05
2908.3	2.694997807124409e-05
2906.3	1.7929910823059303e-05
2904.4	1.0837020613030554e-05
2902.5	1.4254563617757411e-05
2900.6	1.9671307441157834e-05
2898.6	1.9646654646459723e-05
2896.7	1.9150441011646606e-05
2894.8	2.1768446956775985e-05
2892.8	2.469562399493202e-05
2890.9	2.5606856391014078e-05
2889.0	2.590765557234053e-05
2887.1	2.4525661517469905e-05
2885.1	2.1097222357584905e-05
2883.2	1.882944788265678e-05
2881.3	1.8706057209687637e-05
2879.3	1.7974294625018265e-05
2877.4	1.4755026558159928e-05
2875.5	1.0795161054529509e-05
2873.6	1.0673831684615756e-05
2871.6	1.4075093806344718e-05
2869.7	1.679263681107158e-05
2867.8	1.8026923639198866e-05
2865.8	1.908300277764241e-05
2863.9	1.8941606159543875e-05
2862.0	1.731442912138785e-05
2860.1	1.6462136348131176e-05
2858.1	2.0452502314702013e-05
2856.2	3.0109380634472e-05
2854.3	3.779011256761365e-05
2852.3	3.4835295550899077e-05
2850.4	2.7334033429170117e-05
2848.5	2.387669216899761e-05
2846.6	2.1959948345597192e-05
2844.6	1.9748253009112608e-05
2842.7	2.2259149164270747e-05
2840.8	2.9410179815798452e-05
2838.8	3.424320452219676e-05
2836.9	3.2403869207153635e-05
2835.0	2.7151576433896978e-05
2833.1	2.3358686223868225e-05
2831.1	2.2650314312168013e-05
2829.2	2.2246990887383657e-05
2827.3	2.006167340772866e-05
2825.3	1.9713166999658882e-05
2823.4	2.5122801033088047e-05
2821.5	3.266545977291555e-05
2819.6	3.716752107597095e-05
2817.6	4.0339881097412405e-05
2815.7	4.32335704887676e-05
2813.8	4.240466838848009e-05
2811.8	3.668918668680862e-05
2809.9	3.115948540519468e-05
2808.0	3.1562808829979034e-05
2806.1	3.3522211393206944e-05
2804.1	3.4276229228595085e-05
2802.2	3.720054578236927e-05
2800.3	3.890891769406949e-05
2798.3	3.5606393450611566e-05
2796.4	3.090180790409824e-05
2794.5	2.7715228302714287e-05
2792.6	2.4984264899371373e-05
2790.6	2.3797222357584906e-05
2788.7	2.5305594269285124e-05
2786.8	2.7590112567613656e-05
2784.8	2.887210662248428e-05
2782.9	2.881476536231178e-05
2781.0	2.797543004726864e-05
2779.1	2.7555362799083865e-05
2777.1	2.558758832415574e-05
2775.2	2.4451576433896977e-05
2773.3	2.6836893913551967e-05
2771.3	2.4829784123580715e-05
2769.4	1.7258686223868226e-05
2767.5	1.3337356853954485e-05
2765.6	1.231224111885386e-05
2763.6	1.0989649627211148e-05
2761.7	1.476121046732614e-05
2759.8	2.533483261049657e-05
2757.8	3.495111349349447e-05
2755.9	3.887955265337946e-05
2754.0	3.9413040300180284e-05
2752.1	3.722393645533843e-05
2750.1	3.1078753472053016e-05
2748.2	2.5245265825252177e-05
2746.3	2.4966595195165917e-05
2744.3	2.740971687539593e-05
2742.4	3.0924399395740944e-05
2740.5	3.77172896057697e-05
2738.6	4.207875347205302e-05
2736.6	3.882599775839383e-05
2734.7	3.202599775839383e-05
2732.8	2.6147327128307575e-05
2730.8	2.4504205448077585e-05
2728.9	2.5343540763120695e-05
2727.0	2.6055699040007798e-05
2725.1	2.7703406266751115e-05
2723.1	2.7504668388480098e-05
2721.2	2.255616198041031e-05
2719.3	1.640765557234053e-05
2717.3	1.4100545782369274e-05
2715.4	1.8430247063983236e-05
2713.5	2.401476536231178e-05
2711.6	2.306121046732614e-05
2709.6	1.717084450075531e-05
2707.7	1.2181740655913453e-05
2705.8	1.2505594269285124e-05
2703.8	1.9303070025827203e-05
2701.9	2.66051313288826e-05
2700.0	2.787622922859508e-05
2698.1	2.597370498513718e-05
2696.1	2.3787924565079676e-05
2694.2	1.8495034355050934e-05
2692.3	1.018207689683738e-05
2690.3	4.785863262024265e-06
2688.4	6.664533892110517e-06
2686.5	1.3700082841966767e-05
2684.6	2.041762584669362e-05
2682.6	2.3069918619950282e-05
2680.7	2.237370498513718e-05
2678.8	2.1132308367038637e-05
2676.8	2.048838750548218e-05
2674.9	2.0385863262024265e-05
2673.0	1.9956961161736746e-05
2671.1	1.7060284586521127e-05
2669.1	1.2997095658106332e-05
2667.2	1.2904205448077581e-05
2665.3	1.5173242044734643e-05
2663.3	1.599835777983529e-05
2661.4	1.8302144145022167e-05
2659.5	2.2521412211880498e-05
2657.6	2.4495497295453428e-05
2655.6	2.1983801958968853e-05
2653.7	1.5041143219141367e-05
2651.8	8.10685639101408e-06
2649.8	4.764996832513029e-06
2647.9	5.662009648652599e-06
2646.0	9.510516056722382e-06
2644.1	1.0160747526923632e-05
2642.1	7.5871253837532325e-06
2640.2	7.652375615223428e-06
2638.3	1.0064070951708e-05
2636.3	1.0790448808537592e-05
2634.4	6.474167925539684e-06
2632.5	-8.672286925588446e-07
2630.6	-3.3563325374007187e-06
2628.6	2.050777252570535e-06
2626.7	9.998021538911349e-06
2624.8	1.4145265825252179e-05
2622.8	1.3503406266751126e-05
2620.9	1.0633107548365082e-05
2619.0	7.198820720237784e-06
2617.1	2.53609473222552e-06
2615.1	-3.0948686711174e-06
2613.2	-3.4869596998197156e-06
2611.3	2.7996199015642556e-06
2609.3	5.925997758393832e-06
2607.4	3.281277715510925e-06
2605.5	1.480478534184493e-06
2603.6	-3.944057307148774e-07
2601.6	-3.873076360801134e-06
2599.7	-2.024569952731359e-06
2597.8	6.45489985868134e-06
2595.8	9.725198577067386e-06
2593.9	3.8289849422542665e-06
2592.0	8.180887870961356e-07
2590.1	1.3356317918230003e-06
2588.1	4.904488085375928e-07
2586.2	-1.290283124604073e-06
2584.3	-6.0781248477169815e-06
2582.3	-1.4373076360801132e-05
2580.4	-1.9739588714000287e-05
2578.5	-1.8738326592271337e-05
2576.6	-1.5076399785585492e-05
2574.6	-1.2500253398957178e-05
2572.7	-8.63121680230009e-06
2570.8	-1.2015155206861346e-06
2568.8	2.213966180985323e-06
2566.9	-6.215827688709204e-07
2565.0	-2.7513766385654434e-07
2563.1	5.743667462599279e-06
2561.1	1.0287588324155741e-05
2559.2	8.060411285999704e-06
2557.3	3.849978071244089e-06
2555.3	1.990575508016168e-06
2553.4	4.0605720968763946e-07
2551.5	-1.8557087861214986e-07
2549.6	-2.114010038497147e-06
2547.6	-6.487632181667564e-06
2545.7	-6.139924954924231e-06
2543.8	-1.7901564251254854e-06
2541.8	1.2261244578724186e-06
2539.9	3.1236002144144966e-06
2538.0	3.426124457872418e-06
2536.1	3.766721894644503e-06
2534.1	8.533234247843671e-06
2532.2	1.2959149164270751e-05
2530.3	9.16373471078408e-06
2528.3	-6.88558062472587e-07
2526.4	-7.66676575215633e-06
2524.5	-7.140387895326742e-06
2522.6	-5.07972321036987e-06
2520.6	-4.78683300034112e-06
2518.7	-4.0700891769406935e-06
2516.8	-6.1972662150967285e-06
2514.8	-1.1765839871351309e-05
2512.9	-1.1222718191121295e-05
2511.0	-5.134876468008385e-06
2509.1	-3.7947419716388104e-06
2507.1	-7.421119828468405e-06
2505.2	-8.515272160226107e-06
2503.3	-6.1449734418400756e-06
2501.3	-4.910223673310266e-06
2499.4	-6.368364114809227e-06
2497.5	-8.313547098094638e-06
2495.6	-8.85035816967984e-06
2493.6	-9.894279031236295e-06
2491.7	-1.31026509429365e-05
2489.8	-1.422191900979485e-05
2487.8	-1.3944510501437551e-05
2485.9	-1.9222718191121293e-05
2484.0	-2.6113084157692126e-05
2482.1	-2.7431090102821497e-05
2480.1	-2.531434627942108e-05
2478.2	-2.1218931825934413e-05
2476.3	-1.6565376930948783e-05
2474.3	-1.6510559914234202e-05
2472.4	-2.221973100726086e-05
2470.5	-2.853853613371668e-05
2468.6	-3.263142634374543e-05
2466.6	-3.525527995711711e-05
2464.7	-3.2497139515618145e-05
2462.8	-2.7402188002533998e-05
2460.8	-2.7024779494176692e-05
2458.9	-2.8867438234004193e-05
2457.0	-2.702099312898982e-05
2455.1	-2.4077072267433364e-05
2453.1	-2.83389990741192e-05
2451.2	-3.703062716241899e-05
2449.3	-3.8761590565761906e-05
2447.3	-3.7367438234004196e-05
2445.4	-4.1699200818673555e-05
2443.5	-4.649289021002875e-05
2441.6	-4.5608371911700216e-05
2439.6	-4.22489693484723e-05
2437.7	-4.254770722674334e-05
2435.8	-4.719873787827104e-05
2433.8	-4.9190365966570824e-05
2431.9	-4.3846445105014376e-05
2430.0	-3.705860338190147e-05
2428.1	-3.644564592368794e-05
2426.1	-3.9848969348472295e-05
2424.2	-4.191880512645583e-05
2422.3	-4.272339067296916e-05
2420.3	-4.756983577798353e-05
2418.4	-5.591880512645583e-05
2416.5	-6.171674382340042e-05
2414.6	-6.267534720530188e-05
2412.6	-6.157282296184396e-05
2410.7	-6.14652502314702e-05
2408.8	-6.210790897129769e-05
2406.8	-6.146398810974124e-05
2404.9	-5.874644510501437e-05
2403.0	-5.543016422201647e-05
2401.1	-5.3101725062131475e-05
2399.1	-5.371800594512939e-05
2397.2	-5.6185317479654984e-05
2395.3	-5.7974421324496854e-05
2393.3	-6.051501876126895e-05
2391.4	-6.305435407631208e-05
2389.5	-6.137568344622582e-05
2387.6	-6.065767750109644e-05
2385.6	-6.71241898542956e-05
2383.7	-7.328611666098143e-05
2381.8	-7.39020613030554e-05
2379.8	-7.388956678524439e-05
2377.9	-7.203142634374543e-05
2376.0	-6.680883485210272e-05
2374.1	-6.446032844403295e-05
2372.1	-6.671102285463671e-05
2370.2	-7.007846108864092e-05
2368.3	-7.330988743238636e-05
2366.3	-7.512204570927342e-05
2364.4	-7.648902100287512e-05
2362.5	-7.919154524633301e-05
2360.6	-7.991872228448906e-05
2358.6	-7.547812484771696e-05
2356.7	-7.292330783100238e-05
2354.8	-7.69358023488134e-05
2352.8	-8.066916329613568e-05
2350.9	-8.02205301885873e-05
2349.0	-7.694185955850106e-05
2347.1	-7.392225525071878e-05
2345.1	-7.400265094293652e-05
2343.2	-7.766377856829591e-05
2341.3	-8.333786365186883e-05
2339.3	-8.847467472345401e-05
2337.4	-9.014451050143756e-05
2335.5	-9.042650455630817e-05
2333.6	-9.32290287997661e-05
2331.6	-9.467421178305149e-05
2329.7	-8.922145606939233e-05
2327.8	-8.503521270893231e-05
2325.8	-8.641342039861605e-05
2323.9	-8.707029871838604e-05
2322.0	-8.630332342478437e-05
2320.1	-8.803176258466937e-05
2318.1	-9.208405535792603e-05
2316.2	-9.492545197602456e-05
2314.3	-9.499654987573704e-05
2312.3	-9.263794649383557e-05
2310.4	-8.934253204034891e-05
2308.5	-8.771030651527704e-05
2306.6	-9.025296525510453e-05
2304.6	-9.50930997514741e-05
2302.7	-9.70583499829443e-05
2300.8	-9.569768529798741e-05
2298.8	-9.383369718824619e-05
2296.9	-9.411236781833244e-05
2295.0	-9.560020954144533e-05
2293.1	-9.390020954144534e-05
2291.1	-9.040652015009014e-05
2289.2	-8.948645290190537e-05
2287.3	-9.182200185176159e-05
2285.3	-9.538598996150285e-05
2283.4	-9.489642317625846e-05
2281.5	-8.829894741971638e-05
2279.6	-8.590067248184785e-05
2277.6	-9.21366843721066e-05
2275.7	-9.671030651527701e-05
2273.8	-9.758851420496077e-05
2271.8	-9.950858145314556e-05
2269.9	-0.00010097635592807368
2268.0	-9.984871594951512e-05
2266.1	-9.947589298767116e-05
2264.1	-0.00010068552702110033
2262.2	-0.00010192612445787243
2260.3	-0.00010633071000438574
2258.3	-0.0001105030700258272
2256.4	-0.00011111602748404073
2254.5	-0.00011011476536231179
2252.6	-0.00010773861897568344
2250.6	-0.00010514114321914136
2248.7	-0.0001065398810974124
2246.8	-0.00010965742410213927
2244.8	-0.00010900971687539593
2242.9	-0.00010815410067735492
2241.0	-0.00011080685639101409
2239.1	-0.00010937130744115783
2237.1	-0.00010198805126455826
2235.2	-9.876545977291555e-05
2233.3	-0.00010057967935285804
2231.3	-0.00010362233809268554
2229.4	-0.00010853277130744114
2227.5	-0.00011177795429072656
2225.6	-0.00011092233809268553
2223.6	-0.00010990731933141659
2221.7	-0.00010944917888991762
2219.8	-0.00010746924613810242
2217.8	-0.00010346545977291555
2215.9	-9.82499780712441e-05
2214.0	-9.389894741971638e-05
2212.1	-9.172280103308803e-05
2210.1	-9.098805126455825e-05
2208.2	-9.139389893280054e-05
2206.3	-9.265124019297303e-05
2204.3	-9.580479508795867e-05
2202.4	-0.00010037336874421325
2200.5	-0.00010120386920715364
2198.6	-9.72645338921105e-05
2196.6	-9.24051313288826e-05
2194.7	-8.94051313288826e-05
2192.8	-9.089423517372448e-05
2190.8	-9.515948540519468e-05
2188.9	-9.64498513717655e-05
2187.0	-9.608207689683739e-05
2185.1	-9.518127771551093e-05
2183.1	-9.289596023585596e-05
2181.2	-8.942107597095657e-05
2179.3	-8.528174065591346e-05
2177.3	-8.26398810974124e-05
2175.4	-8.299802153891134e-05
2173.5	-8.266121046732614e-05
2171.6	-8.18114419375274e-05
2169.6	-8.372107597095658e-05
2167.7	-8.298300277764242e-05
2165.8	-7.643908191608595e-05
2163.8	-6.9980941474587e-05
2161.9	-6.940605720968764e-05
2160.0	-6.984917888991764e-05
2158.1	-6.621867842697724e-05
2156.1	-6.515090395204912e-05
2154.2	-7.10504410116466e-05
2152.3	-7.494160615954386e-05
2150.3	-7.213323424784367e-05
2148.4	-6.7624063154817e-05
2146.5	-6.667429462501826e-05
2144.6	-6.601821548657473e-05
2142.6	-5.967509380634472e-05
2140.7	-5.1935758491301597e-05
2138.8	-5.0164660591589096e-05
2136.8	-5.24851907801764e-05
2134.9	-5.39362214317041e-05
2133.0	-5.1615691243116796e-05
2131.1	-4.4984727839773885e-05
2129.1	-3.808977632668973e-05
2127.2	-3.285216607377808e-05
2125.3	-2.921329369913747e-05
2123.3	-2.915847668242288e-05
2121.4	-3.069023926709224e-05
2119.5	-2.8740007796890987e-05
2117.6	-2.328771502363432e-05
2115.6	-1.8832098825593293e-05
2113.7	-1.660159836265289e-05
2111.8	-1.3606646849568734e-05
2109.8	-8.180268992739144e-06
2107.9	-1.364324350665171e-06
2106.0	4.5607913844354585e-06
2104.1	8.271224599191075e-06
2102.1	1.0175810145704403e-05
2100.2	1.3099663759076068e-05
2098.3	1.7951956532332733e-05
2096.3	2.4852755713659177e-05
2094.4	3.547568344622581e-05
2092.5	4.715330149602846e-05
2090.6	5.268594610399104e-05
2088.6	5.8214677647288145e-05
2086.7	7.873104137225281e-05
2084.8	0.0001206667170215876
2082.8	0.00018363074898884068
2080.9	0.00026896840309926416
2079.0	0.0003947511134934945
2077.1	0.0006141651235319916
2075.1	0.0010192225914916425
2073.2	0.0016819281029189612
2071.3	0.0025417867063008627
2069.3	0.0033844072364894494
2067.4	0.00397245873008138
2065.5	0.004197724443253253
2063.6	0.004111318595585011
2061.6	0.003831244510501438
2059.7	0.003459151157351006
2057.8	0.003066915145460747
2055.8	0.0026974126212172896
2053.9	0.0023704682374153306
2052.0	0.002090504585546513
2050.1	0.001849243457921154
2048.1	0.0016371350860094535
2046.2	0.0014507221285512402
2044.3	0.0012891911651478972
2042.3	0.0011540551532576383
2040.4	0.0010425049217874375
2038.5	0.0009454835924175236
2036.6	0.0008562706349593101
2034.6	0.0007774777447492812
2032.7	0.0007112455192242093
2030.8	0.0006528538911359095
2028.8	0.0005999409336776961
2026.9	0.0005537886409044394
2025.0	0.0005115028604843818
2023.1	0.00046889196432922366
2021.1	0.0004252153550021929
2019.2	0.0003814265873982749
2017.3	0.0003388834657180449
2015.3	0.0002999768188684762
2013.4	0.0002666237269138931
2011.5	0.00023610824521222163
2009.6	0.00020513794649383558
2007.6	0.00017796180010720724
2005.7	0.00015722372691389307
2003.8	0.0001421973490570635
2001.8	0.00013488014229326054
1999.9	0.00013043323424784367
1998.0	0.00011868220359631597
1996.1	0.00010196213634813117
1994.1	8.883024706398323e-05
1992.2	8.327450416646361e-05
1990.3	8.559044880853759e-05
1988.3	9.31236002144145e-05
1986.4	9.738851420496077e-05
1984.5	9.248771502363433e-05
1982.6	8.548312947712098e-05
1980.6	8.169276351055017e-05
1978.7	8.057475756542079e-05
1976.8	8.366592271331807e-05
1974.8	8.935961210467326e-05
1972.9	9.003575849130159e-05
1971.0	8.293908191608595e-05
1969.1	7.379549729545343e-05
1967.1	7.023689391355197e-05
1965.2	7.188174065591346e-05
1963.3	7.350984357487451e-05
1961.4	7.364791676818869e-05
1959.4	7.279183762974513e-05
1957.5	7.357635592807368e-05
1955.6	7.919309975147409e-05
1953.6	8.638851420496077e-05
1951.7	9.086007504507577e-05
1949.8	9.162073973003265e-05
1947.9	9.156293552945763e-05
1945.9	9.488493738121923e-05
1944.0	9.791737244773645e-05
1942.1	9.726634179620875e-05
1940.1	9.651762584669363e-05
1938.2	9.638977632668973e-05
1936.3	9.462831246040643e-05
1934.4	9.435801374202037e-05
1932.4	9.714000779689099e-05
1930.5	9.855170313337556e-05
1928.6	9.525628867988888e-05
1926.6	9.049011256761366e-05
1924.7	9.211211441937528e-05
1922.8	0.00010149019540958041
1920.9	0.00011077412406802789
1918.9	0.00011471951659275861
1917.0	0.00011459326543540763
1915.1	0.00011209284635251693
1913.1	0.00011070938063447201
1911.2	0.00011364572876565469
1909.3	0.0001164620096486526
1907.4	0.00011394366746259927
1905.4	0.00010952073973003266
1903.5	0.00010957601968714975
1901.6	0.00011757143414063643
1899.6	0.0001283973490570635
1897.7	0.00013063702061303056
1895.8	0.00012633150918571218
1893.9	0.00012633609473222551
1891.9	0.00013111131523804883
1890.0	0.0001365291944836996
1888.1	0.00013829882072023778
1886.1	0.00012997029871838605
1884.2	0.00010923626528921591
1882.3	8.675027532771308e-05
1880.4	7.760269480044833e-05
1878.4	9.055040202719165e-05
1876.5	0.0001268712684567029
1874.6	0.00017909625749232494
1872.6	0.00023418830466351545
1870.7	0.00028314694702987186
1868.8	0.0003255590614492471
1866.9	0.0003640815700989231
1864.9	0.00039985489985868133
1863.0	0.00043192372691389303
1861.1	0.0004615927635105501
1859.1	0.0004900889771453633
1857.2	0.0005099798060523366
1855.3	0.0005172233906729692
1853.4	0.0005168845182983284
1851.4	0.0005140196043077823
1849.5	0.0005092360947322255
1847.6	0.0005005575897860728
1845.6	0.0004867674723454022
1843.7	0.0004670171141757224
1841.8	0.00044673819501973584
1839.9	0.0004275909117489401
1837.9	0.00040311409288046394
1836.0	0.00037834379416207785
1834.1	0.0003602419424004678
1832.1	0.00034232961356659027
1830.2	0.0003185667170215876
1828.3	0.00029306007017201885
1826.4	0.00027041261634423274
1824.4	0.00024408363140197845
1822.5	0.00021267576628819257
1820.6	0.00018668737878271038
1818.6	0.00017014598216461187
1816.7	0.00015753761025291165
1814.8	0.0001463668485941231
1812.9	0.0001355135032405828
1810.9	0.0001248857365625457
1809.0	0.0001162620096486526
1807.1	0.00010815927586374932
1805.1	9.993117294478825e-05
1803.2	9.448640904439353e-05
1801.3	9.047054724428634e-05
1799.4	8.519027825154719e-05
1797.4	8.21875444666439e-05
1795.5	8.390584279518541e-05
1793.6	8.760184201549626e-05
1791.6	8.612729399152082e-05
1789.7	7.692258661858579e-05
1787.8	6.877484040738755e-05
1785.9	6.359949320208566e-05
1783.9	5.493331708981041e-05
1782.0	4.465351103747381e-05
1780.1	4.084779006871009e-05
1778.1	4.325788704254178e-05
1776.2	5.054715657131715e-05
1774.3	6.005720481458009e-05
1772.4	6.245320403489105e-05
1770.4	5.4873441840066204e-05
1768.5	4.479258808050285e-05
1766.6	3.85211149554115e-05
1764.6	4.073764923736661e-05
1762.7	4.765056283806833e-05
1760.8	4.634505141074997e-05
1758.9	3.375334048048338e-05
1756.9	2.180748501535011e-05
1755.0	2.115758978607279e-05
1753.1	2.8314044149895207e-05
1751.1	3.2645719019540884e-05
1749.2	3.25104234686418e-05
1747.3	3.376579114078258e-05
1745.4	3.5318254471029646e-05
1743.4	3.2937395838409387e-05
1741.5	2.9358554651332783e-05
1739.6	2.8354051946786248e-05
1737.6	3.266431460455135e-05
1735.7	4.1583490083329263e-05
1733.8	4.243544174260491e-05
1731.9	3.1238731055991406e-05
1729.9	1.9437142439452266e-05
1728.0	1.1479343111934113e-05
1726.1	8.107699429852345e-06
1724.1	9.495078212562745e-06
1722.2	1.2455109400126709e-05
1720.3	1.7604449100920897e-05
1718.4	2.3004775595731057e-05
1716.4	2.226909994639632e-05
1714.5	1.4082739632571449e-05
1712.6	4.237985478290504e-06
1710.6	1.918215486574728e-06
1708.7	9.470128161395642e-06
1706.8	1.6776014814092854e-05
1704.9	1.8535456361775705e-05
1702.9	2.3515759465913004e-05
1701.0	3.380241216314984e-05
1699.1	4.089395253642622e-05
1697.1	4.312967204327285e-05
1695.2	3.4864007601968544e-05
1693.3	1.4174621119828357e-05
1691.4	-1.8945762877053062e-06
1689.4	-4.1161590565762045e-06
1687.5	5.071926319380081e-06
1685.6	1.5539393791725534e-05
1683.6	1.158571219726139e-05
1681.7	-3.349992690414717e-06
1679.8	-1.2465255104527126e-05
1677.9	-1.0453813166999668e-05
1675.9	-5.838209638906529e-06
1674.0	-1.0124116758442568e-05
1672.1	-1.6716880268992796e-05
1670.1	-1.624935919302176e-05
1668.2	-1.6885873008138015e-05
1666.3	-2.2052044247356374e-05
1664.4	-2.1672111495541158e-05
1662.4	-1.762293260562352e-05
1660.5	-1.8021036986501626e-05
1658.6	-1.7712075434920303e-05
1656.6	-2.27918717411442e-06
1654.7	2.2512967204327185e-05
1652.8	2.813180644218108e-05
1650.9	1.231070123288336e-05
1648.9	1.0035183470591402e-06
1647.0	-6.977437746699157e-07
1645.1	-2.5867599044881355e-06
1643.1	-3.098489352370762e-06
1641.2	2.4191413673797554e-06
1639.3	1.468956191218751e-05
1637.4	2.6061912187515268e-05
1635.4	2.738428926465572e-05
1633.5	2.5704322401442277e-05
1631.6	2.9699829443009598e-05
1629.6	3.128931338628722e-05
1627.7	2.8609000536036246e-05
1625.8	2.6010555041177302e-05
1623.9	1.8338614102626538e-05
1621.9	9.461122752302514e-06
1620.0	1.3440339164758026e-05
1618.1	2.725909556064508e-05
1616.1	3.0171672920423004e-05
1614.2	1.750924906193649e-05
1612.3	6.836811071585206e-06
1610.4	6.615272160226115e-06
1608.4	3.636937771063789e-06
1606.5	-7.698148238389943e-06
1604.6	-1.4888051264558256e-05
1602.6	-1.4579679352858047e-05
1600.7	-1.477795429072657e-05
1598.8	-1.5266595195165912e-05
1596.9	-1.4667857316894885e-05
1594.9	-1.4605131328882604e-05
1593.0	-1.7710978997124882e-05
1591.1	-2.5862808829979038e-05
1589.1	-3.4758559524389645e-05
1587.2	-4.017942595390088e-05
1585.3	-4.1553048097071295e-05
1583.4	-4.0869791920471695e-05
1581.4	-4.262313727401198e-05
1579.5	-4.2078085863262e-05
1577.6	-3.489942497928952e-05
1575.6	-3.232012572486722e-05
1573.7	-3.646891964329224e-05
1571.8	-3.3341318649188624e-05
1569.9	-2.7176448516154242e-05
1567.9	-2.685886165391553e-05
1566.0	-2.8748930364017343e-05
1564.1	-2.7637868524925732e-05
1562.1	-1.59862628526877e-05
1560.2	9.67735490472934e-07
1558.3	0.0
1556.4	-2.0290015106476465e-05
1554.4	-3.7910910774328834e-05
1552.5	-4.5665679060474644e-05
1550.6	-4.884220067248189e-05
1548.6	-4.7904799961015596e-05
1546.7	-4.0157053749817235e-05
1544.8	-2.931802056430001e-05
1542.9	-2.1703518347059372e-05
1540.9	-2.0649300716339388e-05
1539.0	-2.856469470298743e-05
1537.1	-4.0588996637590745e-05
1535.1	-4.930989717849999e-05
1533.2	-5.220573071487743e-05
1531.3	-4.951885385702455e-05
1529.4	-4.4593947663369244e-05
1527.4	-3.920606695580138e-05
1525.5	-3.305790166171249e-05
1523.6	-2.9373432093952596e-05
1521.6	-3.1226991861994964e-05
1519.7	-3.163161639296321e-05
1517.8	-2.383993957409496e-05
1515.9	-1.4339598460114025e-05
1513.9	-5.868666244335111e-06
1512.0	8.211476048925425e-06
1510.1	2.8244325325276452e-05
1508.1	4.357750596949454e-05
1506.2	4.02841918035184e-05
1504.3	2.3607090297743708e-05
1502.4	9.85750207104912e-06
1500.4	3.938024462745457e-06
1498.5	4.323673310267437e-06
1496.6	7.378490326980999e-07
1494.6	-1.1168120461965908e-05
1492.7	-1.6654402806880794e-05
1490.8	-8.950786998684348e-06
1488.9	-5.652599775839541e-07
1486.9	-4.8092198235967585e-08
1485.0	-4.943292237220422e-06
1483.1	-8.864577749622346e-06
1481.1	-6.134876468008382e-06
1479.2	2.64593830710004e-06
1477.3	1.2444924711271414e-05
1475.4	1.4842814677647328e-05
1473.4	5.449583353637566e-06
1471.5	-1.0260425905170398e-05
1469.6	-1.9541318649188614e-05
1467.6	-1.6955367672140756e-05
1465.7	-7.091087178987476e-06
1463.8	8.937814921300131e-06
1461.9	2.6868442083719093e-05
1459.9	3.416940207592216e-05
1458.0	3.0937249646703245e-05
1456.1	1.765757029384516e-05
1454.1	-1.8705438331465462e-05
1452.2	-5.4589064860386934e-05
1450.3	-4.7673792700160804e-05
1448.4	-2.0657765216120112e-05
1446.4	-1.17333219628673e-05
1444.5	-7.047960625700502e-06
1442.6	3.5463184055357932e-06
1440.6	1.2903489108717864e-05
1438.7	2.6527420690999437e-05
1436.8	3.921252375615222e-05
1434.9	3.831513571463373e-05
1432.9	3.0954139661809816e-05
1431.0	2.713605087471368e-05
1429.1	2.1596379318746634e-05
1427.1	1.1091121290385443e-05
1425.2	6.99478095609376e-06
1423.3	1.0933945714146478e-05
1421.4	1.225859363578768e-05
1419.4	1.127478680376182e-05
1417.5	1.0473948637980553e-05
1415.6	6.17008430388381e-06
1413.6	1.8147653623117762e-06
1411.7	3.7278495200039e-06
1409.8	1.0207319331416597e-05
1407.9	1.7439754397933818e-05
1405.9	2.1255781881974556e-05
1404.0	1.9651995516787663e-05
1402.1	1.7870800643243493e-05
1400.1	1.9508030797719386e-05
1398.2	1.8246060133521753e-05
1396.3	1.3492251839579015e-05
1394.4	1.1567725744359336e-05
1392.4	1.0323176258466958e-05
1390.5	7.740972662150967e-06
1388.6	9.8538862628527e-06
1386.6	1.3998606305735527e-05
1384.7	1.1141099361629554e-05
1382.8	5.400545782369266e-06
1380.9	8.352838555625942e-06
1378.9	1.91451391257736e-05
1377.0	2.8189605769699306e-05
1375.1	2.8534072413625072e-05
1373.1	2.3981443399444453e-05
1371.2	2.1293518834364795e-05
1369.3	2.1250187612689437e-05
1367.4	2.5091584230787955e-05
1365.4	3.505784318502996e-05
1363.5	4.2165834998294426e-05
1361.6	3.7297261342039825e-05
1359.6	2.620773841430728e-05
1357.7	1.8388387505482178e-05
1355.8	1.6383465718044918e-05
1353.9	2.392452609521953e-05
1351.9	3.9035422250377656e-05
1350.0	4.371236781833244e-05
1348.1	2.95215389113591e-05
1346.1	1.1131172944788264e-05
1344.2	4.223600214414503e-06
1342.3	6.130456605428581e-06
1340.4	9.45565518249594e-06
1338.4	1.5938911359095553e-05
1336.5	2.6108664295112314e-05
1334.6	3.2774630865942204e-05
1332.6	3.193209882559329e-05
1330.7	2.3592427269626235e-05
1328.8	1.0952292773256664e-05
1326.9	-6.167438234004194e-07
1324.9	-8.188304663515424e-06
1323.0	-1.5333950587203354e-05
1321.1	-2.3658730081380052e-05
1319.1	-2.553580234881341e-05
1317.2	-1.628098533209883e-05
1315.3	-5.756668778324641e-06
1313.4	-3.516870522879003e-06
1311.4	-3.536474830661274e-06
1309.5	3.822128551240192e-06
1307.6	1.4080268992739145e-05
1305.6	1.532797621948248e-05
1303.7	4.39036596657083e-06
1301.8	-1.0733024706398323e-05
1299.9	-1.7409171093026657e-05
1297.9	-1.1397475756542079e-05
1296.0	3.761463866283319e-07
1294.1	6.9426587398274936e-06
1292.1	5.4150187612689436e-06
1290.2	2.777447492812212e-07
1288.3	-6.240261195848158e-06
1286.4	-1.2164913990546271e-05
1284.4	-1.214312168023001e-05
1282.5	-7.981194873544175e-06
1280.6	-7.964451050143755e-06
1278.6	-1.476651235319916e-05
1276.7	-2.359621363481312e-05
1274.8	-2.706445105014376e-05
1272.9	-2.432637785682959e-05
1270.9	-2.3076945567954777e-05
1269.0	-2.627269626236538e-05
1267.1	-3.0362599288533693e-05
1265.1	-3.3346654646459724e-05
1263.2	-3.243495930997514e-05
1261.3	-2.8802397543979337e-05
1259.4	-2.458864090443935e-05
1257.4	-2.13099702743531e-05
1255.5	-1.9923726913893084e-05
1253.6	-1.802578821694849e-05
1251.6	-1.4980605233663072e-05
1249.7	-1.314964183032016e-05
1247.8	-1.2279343111934114e-05
1245.9	-1.2212830758734953e-05
1243.9	-1.1488177964036839e-05
1242.0	-7.4848545392524705e-06
1240.1	-5.8241898542955975e-06
1238.1	-1.2415817942595388e-05
1236.2	-1.916811071585205e-05
1234.3	-1.6921665610837676e-05
1232.4	-1.3901598362652891e-05
1230.4	-1.7157677501096435e-05
1228.5	-1.8470634959309975e-05
1226.6	-1.389196432922372e-05
1224.6	-1.1217080064324348e-05
1222.7	-9.514555820866428e-06
1220.8	-1.7249890356220463e-06
1218.9	7.202188002533991e-06
1216.9	5.511359095560645e-06
1215.0	-7.041226061108129e-07
1213.1	2.8636518688173102e-06
1211.1	1.4370761658788558e-05
1209.2	2.2578334389162325e-05
1207.3	2.358464499780713e-05
1205.4	2.0814346279421086e-05
1203.4	2.0187968422591493e-05
1201.5	2.3147370985819403e-05
1199.6	2.7157005019248578e-05
1197.6	3.2391754787778376e-05
1195.7	3.915241947273524e-05
1193.8	4.24247794941767e-05
1191.9	3.233315140587691e-05
1189.9	1.1776273086106917e-05
1188.0	-1.330836703864331e-06
1186.1	4.603284440329427e-07
1184.1	9.005384727839775e-06
1182.2	1.7040806978217433e-05
1180.3	1.8934160128648695e-05
1178.4	1.1123054432045224e-05
1176.4	-2.3927635105501667e-06
1174.5	-1.198233029579455e-05
1172.6	-1.1330037522537887e-05
1170.6	-6.715817942595387e-06
1168.7	-7.0447200428829e-06
1166.8	-8.876945567954778e-06
1164.9	-5.63508600945373e-06
1162.9	-2.058939622825397e-06
1161.0	-4.981531114468105e-06
1159.1	-9.940470737293502e-06
1157.1	-8.7851907801764e-06
1155.2	-1.776019687149749e-06
1153.3	4.793353150431266e-06
1151.4	7.558603381901467e-06
1149.4	4.317206763802934e-06
1147.5	-1.8774085083572926e-06
1145.6	-1.8252424345792141e-06
1143.6	2.0776180498026416e-06
1141.7	1.3023975439793358e-06
1139.8	1.1342039861605144e-07
1137.9	8.039569221772997e-08
1135.9	-1.538073193314166e-06
1134.0	-2.995414453486673e-06
1132.1	-6.586579601383948e-06
1130.1	-1.1663525169338726e-05
1128.2	-1.45099702743531e-05
1126.3	-2.0815817942595385e-05
1124.4	-3.0504921787437258e-05
1122.4	-3.2697012816139563e-05
1120.5	-2.527236002144145e-05
1118.6	-1.7881531114468107e-05
1116.6	-1.4977744749281221e-05
1114.7	-1.0804122606110813e-05
1112.8	-2.5271770381560354e-06
1110.9	2.191165147897275e-06
1108.9	-1.957804200575021e-06
1107.0	-1.1389103844841868e-05
1105.1	-1.9608245212221624e-05
1103.1	-1.7993562691876616e-05
1101.2	-5.448842648993709e-06
1099.3	4.294615272160226e-06
1097.4	2.9243165537741817e-06
1095.4	-3.0622630476097652e-06
1093.5	-6.417879245650796e-06
1091.6	-1.0651366892451635e-05
1089.6	-2.048657960138395e-05
1087.7	-3.185481701671459e-05
1085.8	-3.952843915988499e-05
1083.9	-3.8238872374640613e-05
1081.9	-2.3771897081038936e-05
1080.0	-5.428775400808926e-06
1078.1	1.2628526874908677e-06
1076.1	-1.2758476682422881e-05
1074.2	-4.0729111641732855e-05
1072.3	-5.859389893280054e-05
1070.4	-5.255502655815993e-05
1068.4	-4.134379416207787e-05
1066.5	-4.685342819550704e-05
1064.6	-5.613462306905121e-05
1062.6	-4.7648043467667266e-05
1060.7	-3.6868110715852054e-05
1058.8	-4.1392763510550166e-05
1056.9	-4.765422737683349e-05
1054.9	-4.705124019297305e-05
1053.0	-4.26236002144145e-05
1051.1	-3.547383168461576e-05
1049.1	-3.613954485648847e-05
1047.2	-5.2936221431704105e-05
1045.3	-7.452705033867745e-05
1043.4	-8.62483797085912e-05
1041.4	-8.977635592807368e-05
1039.5	-8.793323424784367e-05
1037.6	-7.707967935285804e-05
1035.6	-6.308931338628722e-05
1033.7	-5.3807782271819115e-05
1031.8	-5.173209882559329e-05
1029.9	-5.61425320403489e-05
1027.9	-5.660399590663223e-05
1026.0	-4.494917888991764e-05
1024.1	-2.8487715023634323e-05
1022.1	-2.142545197602456e-05
1020.2	-3.167236002144144e-05
1018.3	-4.550206130305541e-05
1016.4	-4.6676945567954785e-05
1014.4	-3.9398274937868524e-05
1012.5	-3.540538472783977e-05
1010.6	-4.147189708103894e-05
1008.6	-5.7463861410262655e-05
1006.7	-7.233071000438575e-05
1004.8	-7.825283855562593e-05
1002.9	-8.183230836703864e-05
1000.9	-9.288918668680862e-05
999.0	-0.00010810294332634861
997.1	-0.00012071749914721505
995.1	-0.0001336086642951123
993.2	-0.00014075384727839775
991.3	-0.00013142746942156815
989.4	-0.00011757643877004043
987.4	-0.0001160593587057161
985.5	-0.00012391085229764633
983.6	-0.00012801038935724378
981.6	-0.00012456852979874275
979.7	-0.00012270786511378587
977.8	-0.00012617391452658251
975.9	-0.00012391484820427852
973.9	-0.0001157549827006481
972.0	-0.00011636873934018807
970.1	-0.00012410887383655766
968.1	-0.00012272355635690267
966.2	-0.00011438215973880416
964.3	-0.0001167482091516008
962.4	-0.00012240003898445493
960.4	-0.00011747458700843037
958.5	-0.0001165102626577652
956.6	-0.00013389936650260709
954.6	-0.00015062309341650016
952.7	-0.00014607824667413867
950.8	-0.00013422721602261093
948.9	-0.00012834189854295597
946.9	-0.00012094236148335849
945.0	-0.00011398847034744896
943.1	-0.0001076023536864675
941.1	-9.666428049315336e-05
939.2	-8.652115881292335e-05
937.3	-8.020693923298084e-05
935.4	-7.291909750986792e-05
933.4	-6.329903026168315e-05
931.5	-6.0241689001510625e-05
929.6	-6.989019540958041e-05
927.6	-8.145969494664004e-05
925.7	-8.385935870571609e-05
923.8	-8.257277910433215e-05
921.9	-8.169284635251694e-05
919.9	-6.753424297061545e-05
918.0	-4.28677306174163e-05
916.1	-3.098666244335071e-05
914.1	-3.756041128599971e-05
912.2	-4.636419765118659e-05
910.3	-4.529848447931387e-05
908.4	-3.800765557234053e-05
906.4	-2.2928984942254267e-05
904.5	1.1094244919838262e-06
902.6	1.1323980312850254e-05
900.6	-3.6956239949320236e-06
898.7	-1.9126460698796352e-05
896.8	-1.1601807904098242e-05
894.9	6.223980312850252e-06
892.9	1.363853613371668e-05
891.0	1.5035548949856245e-05
889.1	2.0452629014180596e-05
887.1	2.6234623069051214e-05
885.2	3.385389113590956e-05
883.3	4.845342819550704e-05
881.4	5.994539252473076e-05
879.4	6.092864870133034e-05
877.5	6.760273378490328e-05
875.6	8.176592271331807e-05
873.6	7.833920861556454e-05
871.7	6.106983577798352e-05
869.8	5.062305443204522e-05
867.9	5.0936937771063793e-05
865.9	5.51574679596511e-05
864.0	4.316251644656693e-05
862.1	1.6849096047950884e-05
860.1	5.975683446225818e-06
858.2	1.5486789142829286e-05
856.3	3.3241606159543873e-05
854.4	4.579322645095268e-05
852.4	4.313727401198772e-05
850.5	3.185607913844354e-05
848.6	2.3674421324496857e-05
846.6	2.49794698114127e-05
844.7	2.6331889284147947e-05
842.8	2.524783392622192e-05
840.9	4.020126212172896e-05
838.9	6.249230057014765e-05
837.0	7.158346571804492e-05
835.1	7.074758052726476e-05
833.1	5.770963403342917e-05
831.2	3.2231889284147945e-05
829.3	2.412747916768194e-06
827.4	-3.019596023585595e-05
825.4	-3.9411105696603474e-05
823.5	-2.037143414063642e-05
821.6	-1.5450441011646604e-05
819.6	-2.661224111885386e-05
817.7	-2.876487013303445e-05
815.8	-2.6331382486233592e-05
813.9	-3.0178290531650504e-05
811.9	-2.9884264899371373e-05
810.0	-1.7812830758734952e-05
808.1	-1.1641143219141373e-05
806.1	-1.2241459967837819e-06
804.2	1.901691438039083e-05
802.3	2.5830334779006886e-05
800.4	1.7176107402173404e-05
