3998.1	-1.5052316
3997.2	-1.5051602
3996.2	-1.5050290
3995.2	-1.5050162
3994.3	-1.5049731
3993.3	-1.5048040
3992.3	-1.5046976
3991.4	-1.5047899
3990.4	-1.5049915
3989.5	-1.5051353
3988.5	-1.5051565
3987.5	-1.5051273
3986.6	-1.5050616
3985.6	-1.5049007
3984.6	-1.5047321
3983.7	-1.5047841
3982.7	-1.5050790
3981.7	-1.5052769
3980.8	-1.5051656
3979.8	-1.5050087
3978.8	-1.5051016
3977.9	-1.5053277
3976.9	-1.5053984
3975.9	-1.5052844
3975.0	-1.5052172
3974.0	-1.5053209
3973.1	-1.5053939
3972.1	-1.5052737
3971.1	-1.5051162
3970.2	-1.5050946
3969.2	-1.5052056
3968.2	-1.5052919
3967.3	-1.5052329
3966.3	-1.5051078
3965.3	-1.5050023
3964.4	-1.5049806
3963.4	-1.5051421
3962.4	-1.5053791
3961.5	-1.5054007
3960.5	-1.5052217
3959.6	-1.5051833
3958.6	-1.5053431
3957.6	-1.5054268
3956.7	-1.5053958
3955.7	-1.5054742
3954.7	-1.5056514
3953.8	-1.5056959
3952.8	-1.5055417
3951.8	-1.5053012
3950.9	-1.5051485
3949.9	-1.5051627
3948.9	-1.5052481
3948.0	-1.5053775
3947.0	-1.5055952
3946.1	-1.5057845
3945.1	-1.5057080
3944.1	-1.5053611
3943.2	-1.5052245
3942.2	-1.5055861
3941.2	-1.5059221
3940.3	-1.5057586
3939.3	-1.5053484
3938.3	-1.5051095
3937.4	-1.5051618
3936.4	-1.5054182
3935.4	-1.5056717
3934.5	-1.5057216
3933.5	-1.5057064
3932.6	-1.5059178
3931.6	-1.5061773
3930.6	-1.5060987
3929.7	-1.5058669
3928.7	-1.5058082
3927.7	-1.5056853
3926.8	-1.5053914
3925.8	-1.5053271
3924.8	-1.5056511
3923.9	-1.5060771
3922.9	-1.5062510
3921.9	-1.5059305
3921.0	-1.5054001
3920.0	-1.5053132
3919.1	-1.5054797
3918.1	-1.5054942
3917.1	-1.5057560
3916.2	-1.5061716
3915.2	-1.5061839
3914.2	-1.5060333
3913.3	-1.5060605
3912.3	-1.5060453
3911.3	-1.5059153
3910.4	-1.5058565
3909.4	-1.5058551
3908.4	-1.5057817
3907.5	-1.5055993
3906.5	-1.5052891
3905.6	-1.5050057
3904.6	-1.5053012
3903.6	-1.5059171
3902.7	-1.5060081
3901.7	-1.5059317
3900.7	-1.5059795
3899.8	-1.5060692
3898.8	-1.5065702
3897.8	-1.5070404
3896.9	-1.5069071
3895.9	-1.5064943
3894.9	-1.5061629
3894.0	-1.5057948
3893.0	-1.5051868
3892.1	-1.5050060
3891.1	-1.5059016
3890.1	-1.5067829
3889.2	-1.5066227
3888.2	-1.5058954
3887.2	-1.5050701
3886.3	-1.5050433
3885.3	-1.5063326
3884.3	-1.5072286
3883.4	-1.5067818
3882.4	-1.5059371
3881.4	-1.5053751
3880.5	-1.5054413
3879.5	-1.5060071
3878.6	-1.5063916
3877.6	-1.5064342
3876.6	-1.5062139
3875.7	-1.5057641
3874.7	-1.5057079
3873.7	-1.5062789
3872.8	-1.5064837
3871.8	-1.5055852
3870.8	-1.5048248
3869.9	-1.5058831
3868.9	-1.5076160
3867.9	-1.5078719
3867.0	-1.5067871
3866.0	-1.5059056
3865.1	-1.5062819
3864.1	-1.5070926
3863.1	-1.5069613
3862.2	-1.5065429
3861.2	-1.5068303
3860.2	-1.5071322
3859.3	-1.5068499
3858.3	-1.5064834
3857.3	-1.5063202
3856.4	-1.5052495
3855.4	-1.5033439
3854.4	-1.5037190
3853.5	-1.5063529
3852.5	-1.5079957
3851.6	-1.5087013
3850.6	-1.5088457
3849.6	-1.5079402
3848.7	-1.5071012
3847.7	-1.5069151
3846.7	-1.5068941
3845.8	-1.5067214
3844.8	-1.5065997
3843.8	-1.5069023
3842.9	-1.5071441
3841.9	-1.5068452
3840.9	-1.5065874
3840.0	-1.5061216
3839.0	-1.5052800
3838.0	-1.5061641
3837.1	-1.5083218
3836.1	-1.5085480
3835.2	-1.5076185
3834.2	-1.5074443
3833.2	-1.5070574
3832.3	-1.5064445
3831.3	-1.5067329
3830.3	-1.5072261
3829.4	-1.5070176
3828.4	-1.5065922
3827.4	-1.5066068
3826.5	-1.5070436
3825.5	-1.5073304
3824.5	-1.5070599
3823.6	-1.5062553
3822.6	-1.5054166
3821.7	-1.5057496
3820.7	-1.5073278
3819.7	-1.5083904
3818.8	-1.5078964
3817.8	-1.5062311
3816.8	-1.5052236
3815.9	-1.5066735
3814.9	-1.5086571
3813.9	-1.5086898
3813.0	-1.5077852
3812.0	-1.5072948
3811.0	-1.5072001
3810.1	-1.5071400
3809.1	-1.5065707
3808.2	-1.5058633
3807.2	-1.5064993
3806.2	-1.5081586
3805.3	-1.5087316
3804.3	-1.5077912
3803.3	-1.5060828
3802.4	-1.5050082
3801.4	-1.5063862
3800.4	-1.5086380
3799.5	-1.5089171
3798.5	-1.5079453
3797.5	-1.5073794
3796.6	-1.5074338
3795.6	-1.5077829
3794.7	-1.5078996
3793.7	-1.5076914
3792.7	-1.5075278
3791.8	-1.5075506
3790.8	-1.5077723
3789.8	-1.5080791
3788.9	-1.5082117
3787.9	-1.5080625
3786.9	-1.5077463
3786.0	-1.5075012
3785.0	-1.5075214
3784.0	-1.5076853
3783.1	-1.5076874
3782.1	-1.5075140
3781.2	-1.5072880
3780.2	-1.5072594
3779.2	-1.5076160
3778.3	-1.5078344
3777.3	-1.5075835
3776.3	-1.5073686
3775.4	-1.5075537
3774.4	-1.5078765
3773.4	-1.5080035
3772.5	-1.5078986
3771.5	-1.5075015
3770.5	-1.5071746
3769.6	-1.5075175
3768.6	-1.5079854
3767.7	-1.5077801
3766.7	-1.5073601
3765.7	-1.5074990
3764.8	-1.5079924
3763.8	-1.5082415
3762.8	-1.5081578
3761.9	-1.5078344
3760.9	-1.5074643
3759.9	-1.5075781
3759.0	-1.5080582
3758.0	-1.5081090
3757.0	-1.5079317
3756.1	-1.5080556
3755.1	-1.5078887
3754.2	-1.5066693
3753.2	-1.5055337
3752.2	-1.5064411
3751.3	-1.5075496
3750.3	-1.5069933
3749.3	-1.5075487
3748.4	-1.5093784
3747.4	-1.5090380
3746.4	-1.5061646
3745.5	-1.5041809
3744.5	-1.5063201
3743.5	-1.5098155
3742.6	-1.5101881
3741.6	-1.5088683
3740.7	-1.5083261
3739.7	-1.5081053
3738.7	-1.5074372
3737.8	-1.5067328
3736.8	-1.5068049
3735.8	-1.5075605
3734.9	-1.5081989
3733.9	-1.5080308
3732.9	-1.5075203
3732.0	-1.5080308
3731.0	-1.5089768
3730.0	-1.5088477
3729.1	-1.5080836
3728.1	-1.5075319
3727.2	-1.5074277
3726.2	-1.5078619
3725.2	-1.5083771
3724.3	-1.5084006
3723.3	-1.5080746
3722.3	-1.5080886
3721.4	-1.5084579
3720.4	-1.5084733
3719.4	-1.5081817
3718.5	-1.5081358
3717.5	-1.5082611
3716.5	-1.5082259
3715.6	-1.5080316
3714.6	-1.5076035
3713.7	-1.5069244
3712.7	-1.5070171
3711.7	-1.5081981
3710.8	-1.5087271
3709.8	-1.5083773
3708.8	-1.5084713
3707.9	-1.5086256
3706.9	-1.5083004
3705.9	-1.5080626
3705.0	-1.5080916
3704.0	-1.5079756
3703.0	-1.5077091
3702.1	-1.5079560
3701.1	-1.5086552
3700.1	-1.5089138
3699.2	-1.5086408
3698.2	-1.5084196
3697.3	-1.5084423
3696.3	-1.5085382
3695.3	-1.5085347
3694.4	-1.5084035
3693.4	-1.5080804
3692.4	-1.5076580
3691.5	-1.5076652
3690.5	-1.5075064
3689.5	-1.5067537
3688.6	-1.5074860
3687.6	-1.5096290
3686.6	-1.5101908
3685.7	-1.5092682
3684.7	-1.5087203
3683.8	-1.5086315
3682.8	-1.5085307
3681.8	-1.5082560
3680.9	-1.5078268
3679.9	-1.5076486
3678.9	-1.5077251
3678.0	-1.5071274
3677.0	-1.5060550
3676.0	-1.5065137
3675.1	-1.5085901
3674.1	-1.5098275
3673.1	-1.5090282
3672.2	-1.5072268
3671.2	-1.5066311
3670.3	-1.5079210
3669.3	-1.5090634
3668.3	-1.5091473
3667.4	-1.5088851
3666.4	-1.5085198
3665.4	-1.5082843
3664.5	-1.5082475
3663.5	-1.5082321
3662.5	-1.5082383
3661.6	-1.5082694
3660.6	-1.5083594
3659.6	-1.5085248
3658.7	-1.5084069
3657.7	-1.5077733
3656.8	-1.5076417
3655.8	-1.5085707
3654.8	-1.5092582
3653.9	-1.5089637
3652.9	-1.5081958
3651.9	-1.5074934
3651.0	-1.5072246
3650.0	-1.5076492
3649.0	-1.5086266
3648.1	-1.5093273
3647.1	-1.5094122
3646.1	-1.5093149
3645.2	-1.5090798
3644.2	-1.5087504
3643.3	-1.5085936
3642.3	-1.5085922
3641.3	-1.5085815
3640.4	-1.5084395
3639.4	-1.5083196
3638.4	-1.5084484
3637.5	-1.5086030
3636.5	-1.5084831
3635.5	-1.5082321
3634.6	-1.5082114
3633.6	-1.5085297
3632.6	-1.5087413
3631.7	-1.5081935
3630.7	-1.5071158
3629.8	-1.5069140
3628.8	-1.5082161
3627.8	-1.5095224
3626.9	-1.5095707
3625.9	-1.5090196
3624.9	-1.5087072
3624.0	-1.5085602
3623.0	-1.5084206
3622.0	-1.5082198
3621.1	-1.5078610
3620.1	-1.5078390
3619.1	-1.5084935
3618.2	-1.5092010
3617.2	-1.5094513
3616.3	-1.5092400
3615.3	-1.5088153
3614.3	-1.5085385
3613.4	-1.5085958
3612.4	-1.5089527
3611.4	-1.5089355
3610.5	-1.5082790
3609.5	-1.5081794
3608.5	-1.5089016
3607.6	-1.5092530
3606.6	-1.5091072
3605.6	-1.5090059
3604.7	-1.5088849
3603.7	-1.5086633
3602.8	-1.5084499
3601.8	-1.5083435
3600.8	-1.5084192
3599.9	-1.5085382
3598.9	-1.5085466
3597.9	-1.5085096
3597.0	-1.5084739
3596.0	-1.5085080
3595.0	-1.5085800
3594.1	-1.5085115
3593.1	-1.5084726
3592.1	-1.5085880
3591.2	-1.5085319
3590.2	-1.5081995
3589.3	-1.5080447
3588.3	-1.5083455
3587.3	-1.5087689
3586.4	-1.5090326
3585.4	-1.5090311
3584.4	-1.5087506
3583.5	-1.5084516
3582.5	-1.5082855
3581.5	-1.5082504
3580.6	-1.5083809
3579.6	-1.5085968
3578.6	-1.5086927
3577.7	-1.5086385
3576.7	-1.5086441
3575.8	-1.5087205
3574.8	-1.5086827
3573.8	-1.5086100
3572.9	-1.5087042
3571.9	-1.5088627
3570.9	-1.5087972
3570.0	-1.5083536
3569.0	-1.5078881
3568.0	-1.5079988
3567.1	-1.5085465
3566.1	-1.5090150
3565.1	-1.5092371
3564.2	-1.5092224
3563.2	-1.5091219
3562.3	-1.5090861
3561.3	-1.5091320
3560.3	-1.5091733
3559.4	-1.5091511
3558.4	-1.5091748
3557.4	-1.5092703
3556.5	-1.5093217
3555.5	-1.5093198
3554.5	-1.5092938
3553.6	-1.5092287
3552.6	-1.5092924
3551.6	-1.5095736
3550.7	-1.5097351
3549.7	-1.5095785
3548.7	-1.5093260
3547.8	-1.5091645
3546.8	-1.5091379
3545.9	-1.5092784
3544.9	-1.5094868
3543.9	-1.5096430
3543.0	-1.5097116
3542.0	-1.5096480
3541.0	-1.5095953
3540.1	-1.5096540
3539.1	-1.5096340
3538.1	-1.5095099
3537.2	-1.5095090
3536.2	-1.5097027
3535.2	-1.5098706
3534.3	-1.5098580
3533.3	-1.5097492
3532.4	-1.5096220
3531.4	-1.5095429
3530.4	-1.5095963
3529.5	-1.5097474
3528.5	-1.5098896
3527.5	-1.5099478
3526.6	-1.5099064
3525.6	-1.5098335
3524.6	-1.5098063
3523.7	-1.5098326
3522.7	-1.5098537
3521.7	-1.5098053
3520.8	-1.5097277
3519.8	-1.5097171
3518.9	-1.5097919
3517.9	-1.5098697
3516.9	-1.5098805
3516.0	-1.5098560
3515.0	-1.5098528
3514.0	-1.5098971
3513.1	-1.5099148
3512.1	-1.5097952
3511.1	-1.5096190
3510.2	-1.5096166
3509.2	-1.5098517
3508.2	-1.5100831
3507.3	-1.5101308
3506.3	-1.5100691
3505.4	-1.5099852
3504.4	-1.5098991
3503.4	-1.5098301
3502.5	-1.5098462
3501.5	-1.5099534
3500.5	-1.5100560
3499.6	-1.5101427
3498.6	-1.5102637
3497.6	-1.5103872
3496.7	-1.5104104
3495.7	-1.5103492
3494.7	-1.5103345
3493.8	-1.5103426
3492.8	-1.5102829
3491.9	-1.5101755
3490.9	-1.5101142
3489.9	-1.5102041
3489.0	-1.5103463
3488.0	-1.5103638
3487.0	-1.5102762
3486.1	-1.5101759
3485.1	-1.5101942
3484.1	-1.5103601
3483.2	-1.5104543
3482.2	-1.5103778
3481.2	-1.5103284
3480.3	-1.5104530
3479.3	-1.5105983
3478.4	-1.5106001
3477.4	-1.5105441
3476.4	-1.5105532
3475.5	-1.5106071
3474.5	-1.5105416
3473.5	-1.5103339
3472.6	-1.5102543
3471.6	-1.5103846
3470.6	-1.5105010
3469.7	-1.5104657
3468.7	-1.5103430
3467.7	-1.5103074
3466.8	-1.5104328
3465.8	-1.5105411
3464.9	-1.5104363
3463.9	-1.5102189
3462.9	-1.5101256
3462.0	-1.5102047
3461.0	-1.5103463
3460.0	-1.5104113
3459.1	-1.5103184
3458.1	-1.5101395
3457.1	-1.5100664
3456.2	-1.5101571
3455.2	-1.5102172
3454.2	-1.5101430
3453.3	-1.5100452
3452.3	-1.5100287
3451.4	-1.5101055
3450.4	-1.5101820
3449.4	-1.5102023
3448.5	-1.5101951
3447.5	-1.5101594
3446.5	-1.5101042
3445.6	-1.5100815
3444.6	-1.5100888
3443.6	-1.5100514
3442.7	-1.5099913
3441.7	-1.5099772
3440.7	-1.5099734
3439.8	-1.5099705
3438.8	-1.5099530
3437.9	-1.5099057
3436.9	-1.5099682
3435.9	-1.5101532
3435.0	-1.5102150
3434.0	-1.5100868
3433.0	-1.5099162
3432.1	-1.5097114
3431.1	-1.5095073
3430.1	-1.5094414
3429.2	-1.5094376
3428.2	-1.5093793
3427.2	-1.5093096
3426.3	-1.5092264
3425.3	-1.5091246
3424.4	-1.5090760
3423.4	-1.5090628
3422.4	-1.5090189
3421.5	-1.5089678
3420.5	-1.5089669
3419.5	-1.5090495
3418.6	-1.5091424
3417.6	-1.5090945
3416.6	-1.5090102
3415.7	-1.5091048
3414.7	-1.5092211
3413.7	-1.5091722
3412.8	-1.5091022
3411.8	-1.5090848
3410.8	-1.5090195
3409.9	-1.5088978
3408.9	-1.5087819
3408.0	-1.5087175
3407.0	-1.5087345
3406.0	-1.5087959
3405.1	-1.5088524
3404.1	-1.5089576
3403.1	-1.5091773
3402.2	-1.5094095
3401.2	-1.5094643
3400.2	-1.5094198
3399.3	-1.5094951
3398.3	-1.5095438
3397.3	-1.5093963
3396.4	-1.5092808
3395.4	-1.5093104
3394.5	-1.5093391
3393.5	-1.5094179
3392.5	-1.5096226
3391.6	-1.5097512
3390.6	-1.5096972
3389.6	-1.5096517
3388.7	-1.5097352
3387.7	-1.5098714
3386.7	-1.5100023
3385.8	-1.5100750
3384.8	-1.5100449
3383.8	-1.5100124
3382.9	-1.5100443
3381.9	-1.5101199
3381.0	-1.5102968
3380.0	-1.5105364
3379.0	-1.5106263
3378.1	-1.5105484
3377.1	-1.5105264
3376.1	-1.5105916
3375.2	-1.5105746
3374.2	-1.5104839
3373.2	-1.5103989
3372.3	-1.5103654
3371.3	-1.5105562
3370.3	-1.5108724
3369.4	-1.5109205
3368.4	-1.5107630
3367.5	-1.5107337
3366.5	-1.5107939
3365.5	-1.5107532
3364.6	-1.5106802
3363.6	-1.5107396
3362.6	-1.5108273
3361.7	-1.5107629
3360.7	-1.5106338
3359.7	-1.5106479
3358.8	-1.5108457
3357.8	-1.5110532
3356.8	-1.5110549
3355.9	-1.5108488
3354.9	-1.5107173
3354.0	-1.5108106
3353.0	-1.5109645
3352.0	-1.5111427
3351.1	-1.5113531
3350.1	-1.5114069
3349.1	-1.5112904
3348.2	-1.5111908
3347.2	-1.5111772
3346.2	-1.5111555
3345.3	-1.5110259
3344.3	-1.5108514
3343.3	-1.5107341
3342.4	-1.5107001
3341.4	-1.5107825
3340.5	-1.5109535
3339.5	-1.5110892
3338.5	-1.5111097
3337.6	-1.5110441
3336.6	-1.5109538
3335.6	-1.5109248
3334.7	-1.5109789
3333.7	-1.5110474
3332.7	-1.5111541
3331.8	-1.5112637
3330.8	-1.5112721
3329.8	-1.5112048
3328.9	-1.5110995
3327.9	-1.5110493
3327.0	-1.5111858
3326.0	-1.5114068
3325.0	-1.5114725
3324.1	-1.5114160
3323.1	-1.5114573
3322.1	-1.5115019
3321.2	-1.5113536
3320.2	-1.5111779
3319.2	-1.5111924
3318.3	-1.5113077
3317.3	-1.5113635
3316.3	-1.5113264
3315.4	-1.5112454
3314.4	-1.5112461
3313.5	-1.5113674
3312.5	-1.5114688
3311.5	-1.5114268
3310.6	-1.5113337
3309.6	-1.5113904
3308.6	-1.5116022
3307.7	-1.5118332
3306.7	-1.5119946
3305.7	-1.5120729
3304.8	-1.5120912
3303.8	-1.5120132
3302.8	-1.5118307
3301.9	-1.5116456
3300.9	-1.5115556
3300.0	-1.5115728
3299.0	-1.5116844
3298.0	-1.5118638
3297.1	-1.5120072
3296.1	-1.5120140
3295.1	-1.5118752
3294.2	-1.5116674
3293.2	-1.5115517
3292.2	-1.5116366
3291.3	-1.5117462
3290.3	-1.5116665
3289.3	-1.5115004
3288.4	-1.5113689
3287.4	-1.5113018
3286.5	-1.5114027
3285.5	-1.5116568
3284.5	-1.5119134
3283.6	-1.5120289
3282.6	-1.5119261
3281.6	-1.5117238
3280.7	-1.5116224
3279.7	-1.5116390
3278.7	-1.5116687
3277.8	-1.5117154
3276.8	-1.5118815
3275.8	-1.5121082
3274.9	-1.5121973
3273.9	-1.5121459
3272.9	-1.5120887
3272.0	-1.5120929
3271.0	-1.5121541
3270.1	-1.5121616
3269.1	-1.5120591
3268.1	-1.5119833
3267.2	-1.5120558
3266.2	-1.5121793
3265.2	-1.5122105
3264.3	-1.5121548
3263.3	-1.5120293
3262.3	-1.5118631
3261.4	-1.5117601
3260.4	-1.5117726
3259.4	-1.5118480
3258.5	-1.5119107
3257.5	-1.5119727
3256.6	-1.5120777
3255.6	-1.5121727
3254.6	-1.5121539
3253.7	-1.5120548
3252.7	-1.5119896
3251.7	-1.5119902
3250.8	-1.5120914
3249.8	-1.5122275
3248.8	-1.5122848
3247.9	-1.5123466
3246.9	-1.5124018
3245.9	-1.5123389
3245.0	-1.5122685
3244.0	-1.5122900
3243.1	-1.5122895
3242.1	-1.5121650
3241.1	-1.5120384
3240.2	-1.5121087
3239.2	-1.5122902
3238.2	-1.5123534
3237.3	-1.5123394
3236.3	-1.5123696
3235.3	-1.5123798
3234.4	-1.5123432
3233.4	-1.5123334
3232.4	-1.5123643
3231.5	-1.5124319
3230.5	-1.5124549
3229.6	-1.5122777
3228.6	-1.5120193
3227.6	-1.5119923
3226.7	-1.5122221
3225.7	-1.5124615
3224.7	-1.5125347
3223.8	-1.5124456
3222.8	-1.5122662
3221.8	-1.5120813
3220.9	-1.5119920
3219.9	-1.5120393
3218.9	-1.5121436
3218.0	-1.5122018
3217.0	-1.5122511
3216.1	-1.5123743
3215.1	-1.5125104
3214.1	-1.5125353
3213.2	-1.5124065
3212.2	-1.5121890
3211.2	-1.5119798
3210.3	-1.5118964
3209.3	-1.5120125
3208.3	-1.5122402
3207.4	-1.5124689
3206.4	-1.5125927
3205.4	-1.5124930
3204.5	-1.5122756
3203.5	-1.5121615
3202.6	-1.5121591
3201.6	-1.5121239
3200.6	-1.5120289
3199.7	-1.5120064
3198.7	-1.5121419
3197.7	-1.5123670
3196.8	-1.5125422
3195.8	-1.5125543
3194.8	-1.5124320
3193.9	-1.5123492
3192.9	-1.5123473
3191.9	-1.5123181
3191.0	-1.5122827
3190.0	-1.5122887
3189.1	-1.5122817
3188.1	-1.5122569
3187.1	-1.5122435
3186.2	-1.5122848
3185.2	-1.5124038
3184.2	-1.5124671
3183.3	-1.5124172
3182.3	-1.5124173
3181.3	-1.5124937
3180.4	-1.5124738
3179.4	-1.5123159
3178.4	-1.5122132
3177.5	-1.5123003
3176.5	-1.5124210
3175.6	-1.5124348
3174.6	-1.5124121
3173.6	-1.5123891
3172.7	-1.5123276
3171.7	-1.5122670
3170.7	-1.5123138
3169.8	-1.5124774
3168.8	-1.5126234
3167.8	-1.5126405
3166.9	-1.5125486
3165.9	-1.5124424
3164.9	-1.5123575
3164.0	-1.5123003
3163.0	-1.5123460
3162.1	-1.5124663
3161.1	-1.5125134
3160.1	-1.5124574
3159.2	-1.5123683
3158.2	-1.5123217
3157.2	-1.5123099
3156.3	-1.5122824
3155.3	-1.5123016
3154.3	-1.5123795
3153.4	-1.5124528
3152.4	-1.5125277
3151.4	-1.5125620
3150.5	-1.5124968
3149.5	-1.5123768
3148.6	-1.5123202
3147.6	-1.5123783
3146.6	-1.5124086
3145.7	-1.5122937
3144.7	-1.5121489
3143.7	-1.5120744
3142.8	-1.5119944
3141.8	-1.5119209
3140.8	-1.5120133
3139.9	-1.5122159
3138.9	-1.5122664
3137.9	-1.5121526
3137.0	-1.5120969
3136.0	-1.5120778
3135.1	-1.5119030
3134.1	-1.5116858
3133.1	-1.5116836
3132.2	-1.5118818
3131.2	-1.5121009
3130.2	-1.5121895
3129.3	-1.5121486
3128.3	-1.5121852
3127.3	-1.5123717
3126.4	-1.5125233
3125.4	-1.5124993
3124.4	-1.5123111
3123.5	-1.5121276
3122.5	-1.5121512
3121.5	-1.5123863
3120.6	-1.5126711
3119.6	-1.5128243
3118.7	-1.5128175
3117.7	-1.5128043
3116.7	-1.5128740
3115.8	-1.5129675
3114.8	-1.5129826
3113.8	-1.5128880
3112.9	-1.5127840
3111.9	-1.5127798
3110.9	-1.5128787
3110.0	-1.5129988
3109.0	-1.5130134
3108.0	-1.5128964
3107.1	-1.5128167
3106.1	-1.5128473
3105.2	-1.5128158
3104.2	-1.5126611
3103.2	-1.5125715
3102.3	-1.5126783
3101.3	-1.5128692
3100.3	-1.5129648
3099.4	-1.5129322
3098.4	-1.5128371
3097.4	-1.5127387
3096.5	-1.5126873
3095.5	-1.5127196
3094.5	-1.5127605
3093.6	-1.5126963
3092.6	-1.5126432
3091.7	-1.5127727
3090.7	-1.5129658
3089.7	-1.5130134
3088.8	-1.5129672
3087.8	-1.5129802
3086.8	-1.5129808
3085.9	-1.5128618
3084.9	-1.5127084
3083.9	-1.5126234
3083.0	-1.5126232
3082.0	-1.5126710
3081.0	-1.5127218
3080.1	-1.5127971
3079.1	-1.5129057
3078.2	-1.5129280
3077.2	-1.5128186
3076.2	-1.5127447
3075.3	-1.5128009
3074.3	-1.5128706
3073.3	-1.5128618
3072.4	-1.5128088
3071.4	-1.5127821
3070.4	-1.5128347
3069.5	-1.5129153
3068.5	-1.5129638
3067.5	-1.5130628
3066.6	-1.5131967
3065.6	-1.5131788
3064.7	-1.5130080
3063.7	-1.5129095
3062.7	-1.5129458
3061.8	-1.5129708
3060.8	-1.5129675
3059.8	-1.5130186
3058.9	-1.5131204
3057.9	-1.5131911
3056.9	-1.5131463
3056.0	-1.5130537
3055.0	-1.5130227
3054.0	-1.5130289
3053.1	-1.5130491
3052.1	-1.5130788
3051.2	-1.5130798
3050.2	-1.5130594
3049.2	-1.5130192
3048.3	-1.5129675
3047.3	-1.5130361
3046.3	-1.5132607
3045.4	-1.5133814
3044.4	-1.5132478
3043.4	-1.5131253
3042.5	-1.5132091
3041.5	-1.5133195
3040.5	-1.5133234
3039.6	-1.5132738
3038.6	-1.5132277
3037.7	-1.5132478
3036.7	-1.5133325
3035.7	-1.5133898
3034.8	-1.5133603
3033.8	-1.5132861
3032.8	-1.5132701
3031.9	-1.5133570
3030.9	-1.5134914
3029.9	-1.5135829
3029.0	-1.5136054
3028.0	-1.5135889
3027.0	-1.5135274
3026.1	-1.5134295
3025.1	-1.5133942
3024.2	-1.5134608
3023.2	-1.5135001
3022.2	-1.5134286
3021.3	-1.5133423
3020.3	-1.5133525
3019.3	-1.5134556
3018.4	-1.5135144
3017.4	-1.5134603
3016.4	-1.5134580
3015.5	-1.5136027
3014.5	-1.5137826
3013.5	-1.5139226
3012.6	-1.5140200
3011.6	-1.5140245
3010.7	-1.5138760
3009.7	-1.5136557
3008.7	-1.5135206
3007.8	-1.5134908
3006.8	-1.5135144
3005.8	-1.5135818
3004.9	-1.5136302
3003.9	-1.5136094
3002.9	-1.5136172
3002.0	-1.5137061
3001.0	-1.5137584
3000.0	-1.5136875
2999.1	-1.5135663
2998.1	-1.5135125
2997.2	-1.5135313
2996.2	-1.5135717
2995.2	-1.5136849
2994.3	-1.5139487
2993.3	-1.5142159
2992.3	-1.5142180
2991.4	-1.5139734
2990.4	-1.5137146
2989.4	-1.5135516
2988.5	-1.5134937
2987.5	-1.5134885
2986.5	-1.5134627
2985.6	-1.5134898
2984.6	-1.5136371
2983.6	-1.5137706
2982.7	-1.5138209
2981.7	-1.5138892
2980.8	-1.5139951
2979.8	-1.5140339
2978.8	-1.5139915
2977.9	-1.5140009
2976.9	-1.5140854
2975.9	-1.5141063
2975.0	-1.5140082
2974.0	-1.5138906
2973.0	-1.5138857
2972.1	-1.5139821
2971.1	-1.5140491
2970.1	-1.5140296
2969.2	-1.5140027
2968.2	-1.5140680
2967.3	-1.5141892
2966.3	-1.5142363
2965.3	-1.5142024
2964.4	-1.5142338
2963.4	-1.5143535
2962.4	-1.5144125
2961.5	-1.5144322
2960.5	-1.5145494
2959.5	-1.5146769
2958.6	-1.5146770
2957.6	-1.5146120
2956.6	-1.5145606
2955.7	-1.5145507
2954.7	-1.5146095
2953.8	-1.5146433
2952.8	-1.5145619
2951.8	-1.5144224
2950.9	-1.5142777
2949.9	-1.5141780
2948.9	-1.5142204
2948.0	-1.5143512
2947.0	-1.5143774
2946.0	-1.5143011
2945.1	-1.5142735
2944.1	-1.5142792
2943.1	-1.5142792
2942.2	-1.5143305
2941.2	-1.5143781
2940.3	-1.5143784
2939.3	-1.5144572
2938.3	-1.5146414
2937.4	-1.5147433
2936.4	-1.5146655
2935.4	-1.5145798
2934.5	-1.5146203
2933.5	-1.5146483
2932.5	-1.5145622
2931.6	-1.5144967
2930.6	-1.5145826
2929.6	-1.5147945
2928.7	-1.5150001
2927.7	-1.5150945
2926.8	-1.5150658
2925.8	-1.5149751
2924.8	-1.5150167
2923.9	-1.5152326
2922.9	-1.5153619
2921.9	-1.5153725
2921.0	-1.5153993
2920.0	-1.5153937
2919.0	-1.5154295
2918.1	-1.5155838
2917.1	-1.5156572
2916.1	-1.5156021
2915.2	-1.5156198
2914.2	-1.5156862
2913.3	-1.5156218
2912.3	-1.5154775
2911.3	-1.5153726
2910.4	-1.5153071
2909.4	-1.5153252
2908.4	-1.5154396
2907.5	-1.5154750
2906.5	-1.5153191
2905.5	-1.5151173
2904.6	-1.5150208
2903.6	-1.5149848
2902.6	-1.5149724
2901.7	-1.5150541
2900.7	-1.5151691
2899.8	-1.5151846
2898.8	-1.5151463
2897.8	-1.5151582
2896.9	-1.5151485
2895.9	-1.5150229
2894.9	-1.5149336
2894.0	-1.5150118
2893.0	-1.5151047
2892.0	-1.5150717
2891.1	-1.5149702
2890.1	-1.5149031
2889.1	-1.5148418
2888.2	-1.5147001
2887.2	-1.5145587
2886.3	-1.5145520
2885.3	-1.5146173
2884.3	-1.5146027
2883.4	-1.5145061
2882.4	-1.5144285
2881.4	-1.5144218
2880.5	-1.5144322
2879.5	-1.5143676
2878.5	-1.5142676
2877.6	-1.5141945
2876.6	-1.5141064
2875.6	-1.5140463
2874.7	-1.5141129
2873.7	-1.5141870
2872.8	-1.5140316
2871.8	-1.5136880
2870.8	-1.5134225
2869.9	-1.5133253
2868.9	-1.5132682
2867.9	-1.5130801
2867.0	-1.5127327
2866.0	-1.5124328
2865.0	-1.5122911
2864.1	-1.5121360
2863.1	-1.5118566
2862.1	-1.5115616
2861.2	-1.5113504
2860.2	-1.5111177
2859.3	-1.5107089
2858.3	-1.5102446
2857.3	-1.5099127
2856.4	-1.5095874
2855.4	-1.5091090
2854.4	-1.5085388
2853.5	-1.5079955
2852.5	-1.5075361
2851.5	-1.5071101
2850.6	-1.5067006
2849.6	-1.5064112
2848.6	-1.5062692
2847.7	-1.5061573
2846.7	-1.5059972
2845.7	-1.5059021
2844.8	-1.5059756
2843.8	-1.5061092
2842.9	-1.5061222
2841.9	-1.5059148
2840.9	-1.5055389
2840.0	-1.5051744
2839.0	-1.5049775
2838.0	-1.5049388
2837.1	-1.5049034
2836.1	-1.5048141
2835.1	-1.5047563
2834.2	-1.5047625
2833.2	-1.5048217
2832.2	-1.5049454
2831.3	-1.5051550
2830.3	-1.5054318
2829.4	-1.5057110
2828.4	-1.5060426
2827.4	-1.5064547
2826.5	-1.5067421
2825.5	-1.5068032
2824.5	-1.5068049
2823.6	-1.5068521
2822.6	-1.5068170
2821.6	-1.5066139
2820.7	-1.5063730
2819.7	-1.5061307
2818.7	-1.5057636
2817.8	-1.5052888
2816.8	-1.5048434
2815.9	-1.5044003
2814.9	-1.5038197
2813.9	-1.5032153
2813.0	-1.5028211
2812.0	-1.5026095
2811.0	-1.5023733
2810.1	-1.5020256
2809.1	-1.5017165
2808.1	-1.5015787
2807.2	-1.5015961
2806.2	-1.5018032
2805.2	-1.5022671
2804.3	-1.5030255
2803.3	-1.5039060
2802.4	-1.5043498
2801.4	-1.5041164
2800.4	-1.5036906
2799.5	-1.5034084
2798.5	-1.5031368
2797.5	-1.5028585
2796.6	-1.5027488
2795.6	-1.5028788
2794.6	-1.5032077
2793.7	-1.5037239
2792.7	-1.5044156
2791.7	-1.5052392
2790.8	-1.5061425
2789.8	-1.5069667
2788.9	-1.5075995
2787.9	-1.5082097
2786.9	-1.5089101
2786.0	-1.5095098
2785.0	-1.5098687
2784.0	-1.5100605
2783.1	-1.5102035
2782.1	-1.5103582
2781.1	-1.5105075
2780.2	-1.5106903
2779.2	-1.5110027
2778.2	-1.5113537
2777.3	-1.5115682
2776.3	-1.5116974
2775.4	-1.5118316
2774.4	-1.5118674
2773.4	-1.5118262
2772.5	-1.5118692
2771.5	-1.5119117
2770.5	-1.5118394
2769.6	-1.5117238
2768.6	-1.5115762
2767.6	-1.5114400
2766.7	-1.5113686
2765.7	-1.5111747
2764.7	-1.5107976
2763.8	-1.5104878
2762.8	-1.5103492
2761.9	-1.5102404
2760.9	-1.5101013
2759.9	-1.5100611
2759.0	-1.5102072
2758.0	-1.5104775
2757.0	-1.5107956
2756.1	-1.5111123
2755.1	-1.5113533
2754.1	-1.5114437
2753.2	-1.5114205
2752.2	-1.5113600
2751.2	-1.5112802
2750.3	-1.5111825
2749.3	-1.5110453
2748.4	-1.5109057
2747.4	-1.5108678
2746.4	-1.5109528
2745.5	-1.5110954
2744.5	-1.5112798
2743.5	-1.5115656
2742.6	-1.5119491
2741.6	-1.5123576
2740.6	-1.5126835
2739.7	-1.5128438
2738.7	-1.5129046
2737.7	-1.5129362
2736.8	-1.5129224
2735.8	-1.5128962
2734.9	-1.5129360
2733.9	-1.5129889
2732.9	-1.5129143
2732.0	-1.5127566
2731.0	-1.5126870
2730.0	-1.5127544
2729.1	-1.5128006
2728.1	-1.5126846
2727.1	-1.5125327
2726.2	-1.5125062
2725.2	-1.5125384
2724.2	-1.5124495
2723.3	-1.5122386
2722.3	-1.5120963
2721.4	-1.5120584
2720.4	-1.5119880
2719.4	-1.5118206
2718.5	-1.5115987
2717.5	-1.5114163
2716.5	-1.5114238
2715.6	-1.5117122
2714.6	-1.5120916
2713.6	-1.5122930
2712.7	-1.5123436
2711.7	-1.5123945
2710.7	-1.5124131
2709.8	-1.5123700
2708.8	-1.5123714
2707.9	-1.5123577
2706.9	-1.5122352
2705.9	-1.5122194
2705.0	-1.5124284
2704.0	-1.5126679
2703.0	-1.5128411
2702.1	-1.5129644
2701.1	-1.5130390
2700.1	-1.5131556
2699.2	-1.5133832
2698.2	-1.5136139
2697.2	-1.5137420
2696.3	-1.5137982
2695.3	-1.5138363
2694.3	-1.5139260
2693.4	-1.5140685
2692.4	-1.5141307
2691.5	-1.5141306
2690.5	-1.5141661
2689.5	-1.5141480
2688.6	-1.5140332
2687.6	-1.5139486
2686.6	-1.5139779
2685.7	-1.5141023
2684.7	-1.5142189
2683.7	-1.5142169
2682.8	-1.5141670
2681.8	-1.5141776
2680.8	-1.5141871
2679.9	-1.5141503
2678.9	-1.5141640
2678.0	-1.5143092
2677.0	-1.5144954
2676.0	-1.5146043
2675.1	-1.5146506
2674.1	-1.5146515
2673.1	-1.5146039
2672.2	-1.5145605
2671.2	-1.5145543
2670.2	-1.5145372
2669.3	-1.5145141
2668.3	-1.5145918
2667.3	-1.5147358
2666.4	-1.5148067
2665.4	-1.5148255
2664.5	-1.5148600
2663.5	-1.5148984
2662.5	-1.5149266
2661.6	-1.5149419
2660.6	-1.5149901
2659.6	-1.5150509
2658.7	-1.5149769
2657.7	-1.5148113
2656.7	-1.5147446
2655.8	-1.5147821
2654.8	-1.5148277
2653.8	-1.5148658
2652.9	-1.5149086
2651.9	-1.5149368
2651.0	-1.5149783
2650.0	-1.5150552
2649.0	-1.5151411
2648.1	-1.5152242
2647.1	-1.5152602
2646.1	-1.5152341
2645.2	-1.5151700
2644.2	-1.5150865
2643.2	-1.5150579
2642.3	-1.5150942
2641.3	-1.5151076
2640.3	-1.5150775
2639.4	-1.5151050
2638.4	-1.5152289
2637.5	-1.5152991
2636.5	-1.5152557
2635.5	-1.5152372
2634.6	-1.5152670
2633.6	-1.5152489
2632.6	-1.5152491
2631.7	-1.5153548
2630.7	-1.5154214
2629.7	-1.5153328
2628.8	-1.5152526
2627.8	-1.5153286
2626.8	-1.5154510
2625.9	-1.5154842
2624.9	-1.5154300
2624.0	-1.5153404
2623.0	-1.5152935
2622.0	-1.5153332
2621.1	-1.5154253
2620.1	-1.5155205
2619.1	-1.5155864
2618.2	-1.5156202
2617.2	-1.5156155
2616.2	-1.5155571
2615.3	-1.5155282
2614.3	-1.5155902
2613.3	-1.5156147
2612.4	-1.5155338
2611.4	-1.5154624
2610.5	-1.5154537
2609.5	-1.5154355
2608.5	-1.5153880
2607.6	-1.5154281
2606.6	-1.5155871
2605.6	-1.5157053
2604.7	-1.5156918
2603.7	-1.5156481
2602.7	-1.5157007
2601.8	-1.5158155
2600.8	-1.5158546
2599.8	-1.5157906
2598.9	-1.5157071
2597.9	-1.5156785
2597.0	-1.5156950
2596.0	-1.5156825
2595.0	-1.5156217
2594.1	-1.5155662
2593.1	-1.5155915
2592.1	-1.5157088
2591.2	-1.5158159
2590.2	-1.5158263
2589.2	-1.5157573
2588.3	-1.5157026
2587.3	-1.5157132
2586.3	-1.5157213
2585.4	-1.5157282
2584.4	-1.5157938
2583.5	-1.5158435
2582.5	-1.5158026
2581.5	-1.5157232
2580.6	-1.5156744
2579.6	-1.5156376
2578.6	-1.5155668
2577.7	-1.5155438
2576.7	-1.5156596
2575.7	-1.5157815
2574.8	-1.5157838
2573.8	-1.5157353
2572.8	-1.5156580
2571.9	-1.5155455
2570.9	-1.5154754
2570.0	-1.5154243
2569.0	-1.5153086
2568.0	-1.5152000
2567.1	-1.5152322
2566.1	-1.5153878
2565.1	-1.5155263
2564.2	-1.5155365
2563.2	-1.5154598
2562.2	-1.5154414
2561.3	-1.5154973
2560.3	-1.5155212
2559.3	-1.5155016
2558.4	-1.5155374
2557.4	-1.5156370
2556.4	-1.5156686
2555.5	-1.5155942
2554.5	-1.5154799
2553.6	-1.5153728
2552.6	-1.5153389
2551.6	-1.5153782
2550.7	-1.5154388
2549.7	-1.5155060
2548.7	-1.5155309
2547.8	-1.5155109
2546.8	-1.5155364
2545.8	-1.5155966
2544.9	-1.5156001
2543.9	-1.5155743
2542.9	-1.5155699
2542.0	-1.5155666
2541.0	-1.5156001
2540.1	-1.5156604
2539.1	-1.5156498
2538.1	-1.5156111
2537.2	-1.5156198
2536.2	-1.5156412
2535.2	-1.5156924
2534.3	-1.5157795
2533.3	-1.5158386
2532.3	-1.5158728
2531.4	-1.5158824
2530.4	-1.5158232
2529.4	-1.5157220
2528.5	-1.5156263
2527.5	-1.5155625
2526.6	-1.5155880
2525.6	-1.5156932
2524.6	-1.5157558
2523.7	-1.5157006
2522.7	-1.5155884
2521.7	-1.5155419
2520.8	-1.5155946
2519.8	-1.5156473
2518.8	-1.5156003
2517.9	-1.5155016
2516.9	-1.5154843
2515.9	-1.5155381
2515.0	-1.5155817
2514.0	-1.5156317
2513.1	-1.5157036
2512.1	-1.5157658
2511.1	-1.5157496
2510.2	-1.5156463
2509.2	-1.5155865
2508.2	-1.5156310
2507.3	-1.5156839
2506.3	-1.5156733
2505.3	-1.5156510
2504.4	-1.5156767
2503.4	-1.5157108
2502.4	-1.5156994
2501.5	-1.5156577
2500.5	-1.5156283
2499.6	-1.5156144
2498.6	-1.5155892
2497.6	-1.5155408
2496.7	-1.5154856
2495.7	-1.5154381
2494.7	-1.5153977
2493.8	-1.5153997
2492.8	-1.5154532
2491.8	-1.5155196
2490.9	-1.5155393
2489.9	-1.5154177
2488.9	-1.5152406
2488.0	-1.5152164
2487.0	-1.5153173
2486.1	-1.5154011
2485.1	-1.5154561
2484.1	-1.5154938
2483.2	-1.5154507
2482.2	-1.5153302
2481.2	-1.5152723
2480.3	-1.5153329
2479.3	-1.5154327
2478.3	-1.5155205
2477.4	-1.5155470
2476.4	-1.5154792
2475.4	-1.5153908
2474.5	-1.5153770
2473.5	-1.5154048
2472.6	-1.5153779
2471.6	-1.5153410
2470.6	-1.5153759
2469.7	-1.5154247
2468.7	-1.5154254
2467.7	-1.5154051
2466.8	-1.5154191
2465.8	-1.5154361
2464.8	-1.5154144
2463.9	-1.5154313
2462.9	-1.5154947
2461.9	-1.5155485
2461.0	-1.5155839
2460.0	-1.5155569
2459.1	-1.5154659
2458.1	-1.5153620
2457.1	-1.5152702
2456.2	-1.5152221
2455.2	-1.5152322
2454.2	-1.5152866
2453.3	-1.5153534
2452.3	-1.5154136
2451.3	-1.5154533
2450.4	-1.5153965
2449.4	-1.5152609
2448.4	-1.5152270
2447.5	-1.5153633
2446.5	-1.5155506
2445.6	-1.5156226
2444.6	-1.5155193
2443.6	-1.5153751
2442.7	-1.5153042
2441.7	-1.5152488
2440.7	-1.5152091
2439.8	-1.5153115
2438.8	-1.5155250
2437.8	-1.5156496
2436.9	-1.5156367
2435.9	-1.5155987
2434.9	-1.5155815
2434.0	-1.5155455
2433.0	-1.5154976
2432.1	-1.5155168
2431.1	-1.5156170
2430.1	-1.5157001
2429.2	-1.5156926
2428.2	-1.5156246
2427.2	-1.5155612
2426.3	-1.5155466
2425.3	-1.5155745
2424.3	-1.5155663
2423.4	-1.5155214
2422.4	-1.5155678
2421.4	-1.5156735
2420.5	-1.5156478
2419.5	-1.5155014
2418.5	-1.5154334
2417.6	-1.5155268
2416.6	-1.5156699
2415.7	-1.5157242
2414.7	-1.5156797
2413.7	-1.5156182
2412.8	-1.5155816
2411.8	-1.5155797
2410.8	-1.5156170
2409.9	-1.5156118
2408.9	-1.5155133
2407.9	-1.5154573
2407.0	-1.5155357
2406.0	-1.5156574
2405.0	-1.5157298
2404.1	-1.5157462
2403.1	-1.5157392
2402.2	-1.5157623
2401.2	-1.5158303
2400.2	-1.5158719
2399.3	-1.5158737
2398.3	-1.5158894
2397.3	-1.5159084
2396.4	-1.5159442
2395.4	-1.5160069
2394.4	-1.5160176
2393.5	-1.5159843
2392.5	-1.5160105
2391.5	-1.5160967
2390.6	-1.5161476
2389.6	-1.5161296
2388.7	-1.5160832
2387.7	-1.5160459
2386.7	-1.5160468
2385.8	-1.5160770
2384.8	-1.5160974
2383.8	-1.5161421
2382.9	-1.5162179
2381.9	-1.5162317
2380.9	-1.5161996
2380.0	-1.5161544
2379.0	-1.5160290
2378.0	-1.5158933
2377.1	-1.5158678
2376.1	-1.5159187
2375.2	-1.5159323
2374.2	-1.5158290
2373.2	-1.5156971
2372.3	-1.5156542
2371.3	-1.5156260
2370.3	-1.5155213
2369.4	-1.5153437
2368.4	-1.5151296
2367.4	-1.5149775
2366.5	-1.5149220
2365.5	-1.5148947
2364.5	-1.5149312
2363.6	-1.5150770
2362.6	-1.5151689
2361.7	-1.5151114
2360.7	-1.5151196
2359.7	-1.5153116
2358.8	-1.5155150
2357.8	-1.5156430
2356.8	-1.5157694
2355.9	-1.5159485
2354.9	-1.5161313
2353.9	-1.5162050
2353.0	-1.5162159
2352.0	-1.5163348
2351.0	-1.5165827
2350.1	-1.5168103
2349.1	-1.5168703
2348.2	-1.5167729
2347.2	-1.5166491
2346.2	-1.5165306
2345.3	-1.5163893
2344.3	-1.5163262
2343.3	-1.5163453
2342.4	-1.5162613
2341.4	-1.5161176
2340.4	-1.5161153
2339.5	-1.5161755
2338.5	-1.5161556
2337.5	-1.5161508
2336.6	-1.5162426
2335.6	-1.5163394
2334.7	-1.5163535
2333.7	-1.5163434
2332.7	-1.5164040
2331.8	-1.5165311
2330.8	-1.5166911
2329.8	-1.5167974
2328.9	-1.5167705
2327.9	-1.5167246
2326.9	-1.5167677
2326.0	-1.5168492
2325.0	-1.5169493
2324.0	-1.5170752
2323.1	-1.5171442
2322.1	-1.5171472
2321.2	-1.5172272
2320.2	-1.5174093
2319.2	-1.5175660
2318.3	-1.5176492
2317.3	-1.5176879
2316.3	-1.5177131
2315.4	-1.5177401
2314.4	-1.5177544
2313.4	-1.5177611
2312.5	-1.5177754
2311.5	-1.5178273
2310.5	-1.5179373
2309.6	-1.5180315
2308.6	-1.5180858
2307.7	-1.5181390
2306.7	-1.5181597
2305.7	-1.5181745
2304.8	-1.5182366
2303.8	-1.5183232
2302.8	-1.5184056
2301.9	-1.5184382
2300.9	-1.5184308
2299.9	-1.5184661
2299.0	-1.5185653
2298.0	-1.5186857
2297.0	-1.5187547
2296.1	-1.5187619
2295.1	-1.5187778
2294.2	-1.5188028
2293.2	-1.5187949
2292.2	-1.5187739
2291.3	-1.5187950
2290.3	-1.5188590
2289.3	-1.5188984
2288.4	-1.5188981
2287.4	-1.5188924
2286.4	-1.5189090
2285.5	-1.5189546
2284.5	-1.5189762
2283.5	-1.5189546
2282.6	-1.5189669
2281.6	-1.5190579
2280.7	-1.5191445
2279.7	-1.5191545
2278.7	-1.5191313
2277.8	-1.5190935
2276.8	-1.5190442
2275.8	-1.5190642
2274.9	-1.5191581
2273.9	-1.5191964
2272.9	-1.5191661
2272.0	-1.5192273
2271.0	-1.5194169
2270.0	-1.5195683
2269.1	-1.5195302
2268.1	-1.5193974
2267.1	-1.5194075
2266.2	-1.5195163
2265.2	-1.5195082
2264.3	-1.5193917
2263.3	-1.5192835
2262.3	-1.5192357
2261.4	-1.5192797
2260.4	-1.5193902
2259.4	-1.5195235
2258.5	-1.5196692
2257.5	-1.5196812
2256.5	-1.5195035
2255.6	-1.5194105
2254.6	-1.5195053
2253.6	-1.5195695
2252.7	-1.5194674
2251.7	-1.5193028
2250.8	-1.5192658
2249.8	-1.5193567
2248.8	-1.5194560
2247.9	-1.5194718
2246.9	-1.5193737
2245.9	-1.5193146
2245.0	-1.5194175
2244.0	-1.5195495
2243.0	-1.5195816
2242.1	-1.5195768
2241.1	-1.5195483
2240.1	-1.5194417
2239.2	-1.5193472
2238.2	-1.5192988
2237.3	-1.5192810
2236.3	-1.5193830
2235.3	-1.5195733
2234.4	-1.5197178
2233.4	-1.5197345
2232.4	-1.5196458
2231.5	-1.5196097
2230.5	-1.5196805
2229.5	-1.5197239
2228.6	-1.5196946
2227.6	-1.5196874
2226.6	-1.5197359
2225.7	-1.5197451
2224.7	-1.5196644
2223.8	-1.5196460
2222.8	-1.5197742
2221.8	-1.5198637
2220.9	-1.5198263
2219.9	-1.5198085
2218.9	-1.5198780
2218.0	-1.5199536
2217.0	-1.5199987
2216.0	-1.5200366
2215.1	-1.5200038
2214.1	-1.5198983
2213.1	-1.5198870
2212.2	-1.5199580
2211.2	-1.5199552
2210.3	-1.5199207
2209.3	-1.5199338
2208.3	-1.5199565
2207.4	-1.5199537
2206.4	-1.5199471
2205.4	-1.5200132
2204.5	-1.5201710
2203.5	-1.5203106
2202.5	-1.5203348
2201.6	-1.5202992
2200.6	-1.5203036
2199.6	-1.5203074
2198.7	-1.5202718
2197.7	-1.5202830
2196.8	-1.5203719
2195.8	-1.5204248
2194.8	-1.5203527
2193.9	-1.5202578
2192.9	-1.5202576
2191.9	-1.5202993
2191.0	-1.5203046
2190.0	-1.5202560
2189.0	-1.5202096
2188.1	-1.5202703
2187.1	-1.5204060
2186.1	-1.5204455
2185.2	-1.5203702
2184.2	-1.5203259
2183.3	-1.5203196
2182.3	-1.5202624
2181.3	-1.5201957
2180.4	-1.5202501
2179.4	-1.5204386
2178.4	-1.5205538
2177.5	-1.5205170
2176.5	-1.5205144
2175.5	-1.5205384
2174.6	-1.5204680
2173.6	-1.5204211
2172.6	-1.5204570
2171.7	-1.5204207
2170.7	-1.5203221
2169.8	-1.5203435
2168.8	-1.5204685
2167.8	-1.5205173
2166.9	-1.5204322
2165.9	-1.5203478
2164.9	-1.5204035
2164.0	-1.5205091
2163.0	-1.5205461
2162.0	-1.5205882
2161.1	-1.5206493
2160.1	-1.5206486
2159.1	-1.5206341
2158.2	-1.5206738
2157.2	-1.5207211
2156.3	-1.5207317
2155.3	-1.5207473
2154.3	-1.5208195
2153.4	-1.5209147
2152.4	-1.5209787
2151.4	-1.5209855
2150.5	-1.5208899
2149.5	-1.5207555
2148.5	-1.5207148
2147.6	-1.5207486
2146.6	-1.5208303
2145.6	-1.5209885
2144.7	-1.5211393
2143.7	-1.5212195
2142.8	-1.5212619
2141.8	-1.5212611
2140.8	-1.5212053
2139.9	-1.5211394
2138.9	-1.5211146
2137.9	-1.5211354
2137.0	-1.5211860
2136.0	-1.5212497
2135.0	-1.5213139
2134.1	-1.5213864
2133.1	-1.5214227
2132.1	-1.5214112
2131.2	-1.5214187
2130.2	-1.5213908
2129.2	-1.5213224
2128.3	-1.5213653
2127.3	-1.5214670
2126.4	-1.5214578
2125.4	-1.5214012
2124.4	-1.5214432
2123.5	-1.5215375
2122.5	-1.5215633
2121.5	-1.5215459
2120.6	-1.5215348
2119.6	-1.5215402
2118.6	-1.5216500
2117.7	-1.5218360
2116.7	-1.5219318
2115.7	-1.5219449
2114.8	-1.5219486
2113.8	-1.5218893
2112.9	-1.5217942
2111.9	-1.5218083
2110.9	-1.5219282
2110.0	-1.5219389
2109.0	-1.5217532
2108.0	-1.5215858
2107.1	-1.5216118
2106.1	-1.5217291
2105.1	-1.5217524
2104.2	-1.5216888
2103.2	-1.5217093
2102.2	-1.5218118
2101.3	-1.5217903
2100.3	-1.5216300
2099.4	-1.5215524
2098.4	-1.5216123
2097.4	-1.5216789
2096.5	-1.5217445
2095.5	-1.5218581
2094.5	-1.5219948
2093.6	-1.5221169
2092.6	-1.5221479
2091.6	-1.5220933
2090.7	-1.5221195
2089.7	-1.5222461
2088.7	-1.5223387
2087.8	-1.5223933
2086.8	-1.5224622
2085.9	-1.5225575
2084.9	-1.5226605
2083.9	-1.5227283
2083.0	-1.5228106
2082.0	-1.5229520
2081.0	-1.5230852
2080.1	-1.5231370
2079.1	-1.5230818
2078.1	-1.5230442
2077.2	-1.5231819
2076.2	-1.5233847
2075.2	-1.5234492
2074.3	-1.5233697
2073.3	-1.5232680
2072.4	-1.5232469
2071.4	-1.5232946
2070.4	-1.5233419
2069.5	-1.5234034
2068.5	-1.5234959
2067.5	-1.5235856
2066.6	-1.5236610
2065.6	-1.5237155
2064.6	-1.5237733
2063.7	-1.5238516
2062.7	-1.5238740
2061.7	-1.5237991
2060.8	-1.5237215
2059.8	-1.5237433
2058.9	-1.5238278
2057.9	-1.5239207
2056.9	-1.5240418
2056.0	-1.5241194
2055.0	-1.5240947
2054.0	-1.5240744
2053.1	-1.5241163
2052.1	-1.5241363
2051.1	-1.5240988
2050.2	-1.5240777
2049.2	-1.5241200
2048.2	-1.5242418
2047.3	-1.5244136
2046.3	-1.5245116
2045.4	-1.5244998
2044.4	-1.5244471
2043.4	-1.5244263
2042.5	-1.5245075
2041.5	-1.5246125
2040.5	-1.5246093
2039.6	-1.5246023
2038.6	-1.5247122
2037.6	-1.5247928
2036.7	-1.5247688
2035.7	-1.5247746
2034.7	-1.5248215
2033.8	-1.5248533
2032.8	-1.5249127
2031.9	-1.5249801
2030.9	-1.5249522
2029.9	-1.5249032
2029.0	-1.5250179
2028.0	-1.5252227
2027.0	-1.5253110
2026.1	-1.5252597
2025.1	-1.5251935
2024.1	-1.5252562
2023.2	-1.5254185
2022.2	-1.5254867
2021.2	-1.5254087
2020.3	-1.5253330
2019.3	-1.5253849
2018.4	-1.5255119
2017.4	-1.5255876
2016.4	-1.5256420
2015.5	-1.5257651
2014.5	-1.5258915
2013.5	-1.5259252
2012.6	-1.5258930
2011.6	-1.5258852
2010.6	-1.5259426
2009.7	-1.5260543
2008.7	-1.5262046
2007.7	-1.5263274
2006.8	-1.5263438
2005.8	-1.5262640
2004.9	-1.5261694
2003.9	-1.5261434
2002.9	-1.5262396
2002.0	-1.5264375
2001.0	-1.5265871
2000.0	-1.5265979
1999.1	-1.5265900
1998.1	-1.5266495
1997.1	-1.5267049
1996.2	-1.5267111
1995.2	-1.5266821
1994.2	-1.5266113
1993.3	-1.5265212
1992.3	-1.5264921
1991.3	-1.5265434
1990.4	-1.5266103
1989.4	-1.5266770
1988.5	-1.5267371
1987.5	-1.5267637
1986.5	-1.5268108
1985.6	-1.5268356
1984.6	-1.5267441
1983.6	-1.5266582
1982.7	-1.5266950
1981.7	-1.5267913
1980.7	-1.5268390
1979.8	-1.5268186
1978.8	-1.5268086
1977.8	-1.5268525
1976.9	-1.5269270
1975.9	-1.5269649
1975.0	-1.5269434
1974.0	-1.5269400
1973.0	-1.5269855
1972.1	-1.5270303
1971.1	-1.5270675
1970.1	-1.5270958
1969.2	-1.5270721
1968.2	-1.5270474
1967.2	-1.5270921
1966.3	-1.5271800
1965.3	-1.5272781
1964.3	-1.5273304
1963.4	-1.5273043
1962.4	-1.5272853
1961.5	-1.5272440
1960.5	-1.5270574
1959.5	-1.5270953
1958.6	-1.5276954
1957.6	-1.5282130
1956.6	-1.5281399
1955.7	-1.5278535
1954.7	-1.5276613
1953.7	-1.5275828
1952.8	-1.5275960
1951.8	-1.5276213
1950.8	-1.5276525
1949.9	-1.5277385
1948.9	-1.5278327
1948.0	-1.5278280
1947.0	-1.5277138
1946.0	-1.5276607
1945.1	-1.5277293
1944.1	-1.5277077
1943.1	-1.5276719
1942.2	-1.5278753
1941.2	-1.5281034
1940.2	-1.5281342
1939.3	-1.5280954
1938.3	-1.5280664
1937.3	-1.5280406
1936.4	-1.5280621
1935.4	-1.5281456
1934.5	-1.5282257
1933.5	-1.5282586
1932.5	-1.5282565
1931.6	-1.5281856
1930.6	-1.5280117
1929.6	-1.5278323
1928.7	-1.5277290
1927.7	-1.5276456
1926.7	-1.5275977
1925.8	-1.5276663
1924.8	-1.5277568
1923.8	-1.5277501
1922.9	-1.5277585
1921.9	-1.5278713
1921.0	-1.5279592
1920.0	-1.5279108
1919.0	-1.5278472
1918.1	-1.5279918
1917.1	-1.5282192
1916.1	-1.5282241
1915.2	-1.5280906
1914.2	-1.5280616
1913.2	-1.5281689
1912.3	-1.5282698
1911.3	-1.5282646
1910.3	-1.5282633
1909.4	-1.5283620
1908.4	-1.5285109
1907.5	-1.5286348
1906.5	-1.5287000
1905.5	-1.5287179
1904.6	-1.5286959
1903.6	-1.5286667
1902.6	-1.5286868
1901.7	-1.5287642
1900.7	-1.5288365
1899.7	-1.5288570
1898.8	-1.5288693
1897.8	-1.5288846
1896.8	-1.5288914
1895.9	-1.5289559
1894.9	-1.5290511
1894.0	-1.5290607
1893.0	-1.5290247
1892.0	-1.5289916
1891.1	-1.5288932
1890.1	-1.5288692
1889.1	-1.5290428
1888.2	-1.5291646
1887.2	-1.5290881
1886.2	-1.5289767
1885.3	-1.5289745
1884.3	-1.5290645
1883.3	-1.5291468
1882.4	-1.5291942
1881.4	-1.5292405
1880.5	-1.5292730
1879.5	-1.5292217
1878.5	-1.5291216
1877.6	-1.5291625
1876.6	-1.5293751
1875.6	-1.5295646
1874.7	-1.5295957
1873.7	-1.5295171
1872.7	-1.5294449
1871.8	-1.5293598
1870.8	-1.5291708
1869.8	-1.5290734
1868.9	-1.5293194
1867.9	-1.5296779
1867.0	-1.5298175
1866.0	-1.5297463
1865.0	-1.5295825
1864.1	-1.5294274
1863.1	-1.5293596
1862.1	-1.5293819
1861.2	-1.5294566
1860.2	-1.5295660
1859.2	-1.5296640
1858.3	-1.5296428
1857.3	-1.5295171
1856.3	-1.5294638
1855.4	-1.5295583
1854.4	-1.5296966
1853.5	-1.5297853
1852.5	-1.5298214
1851.5	-1.5298462
1850.6	-1.5298705
1849.6	-1.5298469
1848.6	-1.5298059
1847.7	-1.5298791
1846.7	-1.5298644
1845.7	-1.5294855
1844.8	-1.5293455
1843.8	-1.5298737
1842.8	-1.5302807
1841.9	-1.5301974
1840.9	-1.5300484
1839.9	-1.5299916
1839.0	-1.5300226
1838.0	-1.5301093
1837.1	-1.5301402
1836.1	-1.5300719
1835.1	-1.5299989
1834.2	-1.5300120
1833.2	-1.5300256
1832.2	-1.5299217
1831.3	-1.5298170
1830.3	-1.5300184
1829.3	-1.5303972
1828.4	-1.5304601
1827.4	-1.5302016
1826.4	-1.5299858
1825.5	-1.5300601
1824.5	-1.5302985
1823.6	-1.5303743
1822.6	-1.5303190
1821.6	-1.5302769
1820.7	-1.5302435
1819.7	-1.5302447
1818.7	-1.5302396
1817.8	-1.5301960
1816.8	-1.5301296
1815.8	-1.5300088
1814.9	-1.5298637
1813.9	-1.5297468
1812.9	-1.5296383
1812.0	-1.5294881
1811.0	-1.5292982
1810.1	-1.5291170
1809.1	-1.5289247
1808.1	-1.5287044
1807.2	-1.5285027
1806.2	-1.5283245
1805.2	-1.5281599
1804.3	-1.5279403
1803.3	-1.5276632
1802.3	-1.5275730
1801.4	-1.5276827
1800.4	-1.5277921
1799.4	-1.5279506
1798.5	-1.5280873
1797.5	-1.5279959
1796.6	-1.5278333
1795.6	-1.5277746
1794.6	-1.5277177
1793.7	-1.5279427
1792.7	-1.5287895
1791.7	-1.5295602
1790.8	-1.5296133
1789.8	-1.5293847
1788.8	-1.5291963
1787.9	-1.5289309
1786.9	-1.5286101
1785.9	-1.5283723
1785.0	-1.5283084
1784.0	-1.5282613
1783.1	-1.5280745
1782.1	-1.5278847
1781.1	-1.5278265
1780.2	-1.5278535
1779.2	-1.5278294
1778.2	-1.5277877
1777.3	-1.5278450
1776.3	-1.5279435
1775.3	-1.5278548
1774.4	-1.5273894
1773.4	-1.5272162
1772.4	-1.5280161
1771.5	-1.5289234
1770.5	-1.5290310
1769.6	-1.5286798
1768.6	-1.5286742
1767.6	-1.5292090
1766.7	-1.5296091
1765.7	-1.5296894
1764.7	-1.5297920
1763.8	-1.5297331
1762.8	-1.5295576
1761.8	-1.5298499
1760.9	-1.5304157
1759.9	-1.5305820
1758.9	-1.5304228
1758.0	-1.5302813
1757.0	-1.5304252
1756.1	-1.5308099
1755.1	-1.5309248
1754.1	-1.5306735
1753.2	-1.5302594
1752.2	-1.5300599
1751.2	-1.5304749
1750.3	-1.5308372
1749.3	-1.5305287
1748.3	-1.5301480
1747.4	-1.5300425
1746.4	-1.5298868
1745.4	-1.5294919
1744.5	-1.5288895
1743.5	-1.5283087
1742.6	-1.5277396
1741.6	-1.5268782
1740.6	-1.5261016
1739.7	-1.5259736
1738.7	-1.5259424
1737.7	-1.5252949
1736.8	-1.5240372
1735.8	-1.5222578
1734.8	-1.5203170
1733.9	-1.5183545
1732.9	-1.5153601
1731.9	-1.5101522
1731.0	-1.5024533
1730.0	-1.4927261
1729.1	-1.4813071
1728.1	-1.4685229
1727.1	-1.4554278
1726.2	-1.4435264
1725.2	-1.4343934
1724.2	-1.4293736
1723.3	-1.4285517
1722.3	-1.4289349
1721.3	-1.4275855
1720.4	-1.4281697
1719.4	-1.4353833
1718.4	-1.4428535
1717.5	-1.4406136
1716.5	-1.4324855
1715.6	-1.4299934
1714.6	-1.4336507
1713.6	-1.4365405
1712.7	-1.4364198
1711.7	-1.4356840
1710.7	-1.4368596
1709.8	-1.4410312
1708.8	-1.4479612
1707.8	-1.4568735
1706.9	-1.4670371
1705.9	-1.4773790
1704.9	-1.4869274
1704.0	-1.4953547
1703.0	-1.5021574
1702.0	-1.5067738
1701.1	-1.5104874
1700.1	-1.5149072
1699.2	-1.5183893
1698.2	-1.5188414
1697.2	-1.5176306
1696.3	-1.5177320
1695.3	-1.5194266
1694.3	-1.5202990
1693.4	-1.5201917
1692.4	-1.5206473
1691.4	-1.5214144
1690.5	-1.5213346
1689.5	-1.5207882
1688.5	-1.5213485
1687.6	-1.5225558
1686.6	-1.5223832
1685.7	-1.5215032
1684.7	-1.5221339
1683.7	-1.5235491
1682.8	-1.5238868
1681.8	-1.5235240
1680.8	-1.5234829
1679.9	-1.5240268
1678.9	-1.5248460
1677.9	-1.5254893
1677.0	-1.5258719
1676.0	-1.5266049
1675.0	-1.5281321
1674.1	-1.5294207
1673.1	-1.5297793
1672.2	-1.5299760
1671.2	-1.5303571
1670.2	-1.5308925
1669.3	-1.5319076
1668.3	-1.5329391
1667.3	-1.5331706
1666.4	-1.5329608
1665.4	-1.5329019
1664.4	-1.5329782
1663.5	-1.5332825
1662.5	-1.5339123
1661.5	-1.5344135
1660.6	-1.5344640
1659.6	-1.5343785
1658.7	-1.5343388
1657.7	-1.5343169
1656.7	-1.5342366
1655.8	-1.5337194
1654.8	-1.5326562
1653.8	-1.5323459
1652.9	-1.5342011
1651.9	-1.5363674
1650.9	-1.5364028
1650.0	-1.5353074
1649.0	-1.5347131
1648.0	-1.5345547
1647.1	-1.5345185
1646.1	-1.5350515
1645.2	-1.5358413
1644.2	-1.5358911
1643.2	-1.5354927
1642.3	-1.5352799
1641.3	-1.5351934
1640.3	-1.5351442
1639.4	-1.5350645
1638.4	-1.5348979
1637.4	-1.5345404
1636.5	-1.5343229
1635.5	-1.5351080
1634.5	-1.5362052
1633.6	-1.5361887
1632.6	-1.5356020
1631.7	-1.5353481
1630.7	-1.5353463
1629.7	-1.5354086
1628.8	-1.5354810
1627.8	-1.5355748
1626.8	-1.5355664
1625.9	-1.5353539
1624.9	-1.5351167
1623.9	-1.5351955
1623.0	-1.5356038
1622.0	-1.5359029
1621.0	-1.5359384
1620.1	-1.5358919
1619.1	-1.5356236
1618.2	-1.5350617
1617.2	-1.5353144
1616.2	-1.5366998
1615.3	-1.5373957
1614.3	-1.5370232
1613.3	-1.5367687
1612.4	-1.5367800
1611.4	-1.5367227
1610.4	-1.5366596
1609.5	-1.5367429
1608.5	-1.5368863
1607.5	-1.5369649
1606.6	-1.5369688
1605.6	-1.5368730
1604.7	-1.5367767
1603.7	-1.5368047
1602.7	-1.5368446
1601.8	-1.5367672
1600.8	-1.5366291
1599.8	-1.5364293
1598.9	-1.5360662
1597.9	-1.5354803
1596.9	-1.5346804
1596.0	-1.5337148
1595.0	-1.5325897
1594.0	-1.5312355
1593.1	-1.5296005
1592.1	-1.5278324
1591.2	-1.5260804
1590.2	-1.5243429
1589.2	-1.5226091
1588.3	-1.5207820
1587.3	-1.5186198
1586.3	-1.5158764
1585.4	-1.5127867
1584.4	-1.5103520
1583.4	-1.5094860
1582.5	-1.5101341
1581.5	-1.5118150
1580.5	-1.5136031
1579.6	-1.5136294
1578.6	-1.5112859
1577.7	-1.5091429
1576.7	-1.5101086
1575.7	-1.5129801
1574.8	-1.5142376
1573.8	-1.5137589
1572.8	-1.5134840
1571.9	-1.5137527
1570.9	-1.5144173
1569.9	-1.5160240
1569.0	-1.5184578
1568.0	-1.5207971
1567.0	-1.5227668
1566.1	-1.5246192
1565.1	-1.5264475
1564.1	-1.5282638
1563.2	-1.5298215
1562.2	-1.5305792
1561.3	-1.5307783
1560.3	-1.5316130
1559.3	-1.5332983
1558.4	-1.5351248
1557.4	-1.5364934
1556.4	-1.5366391
1555.5	-1.5360832
1554.5	-1.5363077
1553.5	-1.5370972
1552.6	-1.5373271
1551.6	-1.5371614
1550.6	-1.5372357
1549.7	-1.5374920
1548.7	-1.5376686
1547.8	-1.5376648
1546.8	-1.5375106
1545.8	-1.5375928
1544.9	-1.5379918
1543.9	-1.5379149
1542.9	-1.5373554
1542.0	-1.5371280
1541.0	-1.5369606
1540.0	-1.5370363
1539.1	-1.5382124
1538.1	-1.5393224
1537.1	-1.5391181
1536.2	-1.5383174
1535.2	-1.5377320
1534.3	-1.5376691
1533.3	-1.5381405
1532.3	-1.5384952
1531.4	-1.5383781
1530.4	-1.5381166
1529.4	-1.5378597
1528.5	-1.5376680
1527.5	-1.5375353
1526.5	-1.5374061
1525.6	-1.5374871
1524.6	-1.5375414
1523.6	-1.5369887
1522.7	-1.5361916
1521.7	-1.5361819
1520.8	-1.5368962
1519.8	-1.5370232
1518.8	-1.5361586
1517.9	-1.5353878
1516.9	-1.5353178
1515.9	-1.5354373
1515.0	-1.5354930
1514.0	-1.5355930
1513.0	-1.5357851
1512.1	-1.5359793
1511.1	-1.5357777
1510.1	-1.5352410
1509.2	-1.5346867
1508.2	-1.5341351
1507.3	-1.5340827
1506.3	-1.5349323
1505.3	-1.5358921
1504.4	-1.5359924
1503.4	-1.5354394
1502.4	-1.5350240
1501.5	-1.5348488
1500.5	-1.5345643
1499.5	-1.5343006
1498.6	-1.5341467
1497.6	-1.5337186
1496.6	-1.5333477
1495.7	-1.5333579
1494.7	-1.5329093
1493.8	-1.5317822
1492.8	-1.5304103
1491.8	-1.5288144
1490.9	-1.5272071
1489.9	-1.5255891
1488.9	-1.5234900
1488.0	-1.5209473
1487.0	-1.5185072
1486.0	-1.5164219
1485.1	-1.5147101
1484.1	-1.5134932
1483.1	-1.5127341
1482.2	-1.5117003
1481.2	-1.5087177
1480.3	-1.5038401
1479.3	-1.5004530
1478.3	-1.5006536
1477.4	-1.5030986
1476.4	-1.5063314
1475.4	-1.5087876
1474.5	-1.5078970
1473.5	-1.5045737
1472.5	-1.5041350
1471.6	-1.5078050
1470.6	-1.5111057
1469.6	-1.5121025
1468.7	-1.5122739
1467.7	-1.5125396
1466.8	-1.5131241
1465.8	-1.5145879
1464.8	-1.5172391
1463.9	-1.5202352
1462.9	-1.5227592
1461.9	-1.5250849
1461.0	-1.5273777
1460.0	-1.5294120
1459.0	-1.5309745
1458.1	-1.5321399
1457.1	-1.5337280
1456.1	-1.5356356
1455.2	-1.5365911
1454.2	-1.5366892
1453.3	-1.5368099
1452.3	-1.5371045
1451.3	-1.5374192
1450.4	-1.5375521
1449.4	-1.5375309
1448.4	-1.5377214
1447.5	-1.5381233
1446.5	-1.5383234
1445.5	-1.5383047
1444.6	-1.5383589
1443.6	-1.5384231
1442.6	-1.5383672
1441.7	-1.5382465
1440.7	-1.5381148
1439.8	-1.5380056
1438.8	-1.5377042
1437.8	-1.5373479
1436.9	-1.5377270
1435.9	-1.5385368
1434.9	-1.5386373
1434.0	-1.5382233
1433.0	-1.5380346
1432.0	-1.5380317
1431.1	-1.5379891
1430.1	-1.5379579
1429.1	-1.5379400
1428.2	-1.5377959
1427.2	-1.5376363
1426.3	-1.5376101
1425.3	-1.5376024
1424.3	-1.5376098
1423.4	-1.5376939
1422.4	-1.5376981
1421.4	-1.5373650
1420.5	-1.5370369
1419.5	-1.5375072
1418.5	-1.5383525
1417.6	-1.5385754
1416.6	-1.5383916
1415.6	-1.5382712
1414.7	-1.5381802
1413.7	-1.5380353
1412.7	-1.5377669
1411.8	-1.5374156
1410.8	-1.5370653
1409.9	-1.5367024
1408.9	-1.5363485
1407.9	-1.5359969
1407.0	-1.5355494
1406.0	-1.5350633
1405.0	-1.5347890
1404.1	-1.5347320
1403.1	-1.5345528
1402.1	-1.5341909
1401.2	-1.5340966
1400.2	-1.5345632
1399.2	-1.5352050
1398.3	-1.5353074
1397.3	-1.5347739
1396.4	-1.5343181
1395.4	-1.5344770
1394.4	-1.5349978
1393.5	-1.5352317
1392.5	-1.5350031
1391.5	-1.5348266
1390.6	-1.5350193
1389.6	-1.5352124
1388.6	-1.5351814
1387.7	-1.5353982
1386.7	-1.5360019
1385.7	-1.5365560
1384.8	-1.5370866
1383.8	-1.5377452
1382.9	-1.5382844
1381.9	-1.5384939
1380.9	-1.5383795
1380.0	-1.5381292
1379.0	-1.5379100
1378.0	-1.5376706
1377.1	-1.5373180
1376.1	-1.5368557
1375.1	-1.5363789
1374.2	-1.5360633
1373.2	-1.5358949
1372.2	-1.5357109
1371.3	-1.5356232
1370.3	-1.5357609
1369.4	-1.5360796
1368.4	-1.5366081
1367.4	-1.5371939
1366.5	-1.5374898
1365.5	-1.5374267
1364.5	-1.5371783
1363.6	-1.5369097
1362.6	-1.5367155
1361.6	-1.5365586
1360.7	-1.5364472
1359.7	-1.5365045
1358.7	-1.5367042
1357.8	-1.5368987
1356.8	-1.5370781
1355.9	-1.5373372
1354.9	-1.5376768
1353.9	-1.5380734
1353.0	-1.5385011
1352.0	-1.5388347
1351.0	-1.5390692
1350.1	-1.5393138
1349.1	-1.5394990
1348.1	-1.5395174
1347.2	-1.5394827
1346.2	-1.5395427
1345.2	-1.5396752
1344.3	-1.5398313
1343.3	-1.5399640
1342.4	-1.5399835
1341.4	-1.5399333
1340.4	-1.5399550
1339.5	-1.5400429
1338.5	-1.5401189
1337.5	-1.5402452
1336.6	-1.5404600
1335.6	-1.5405911
1334.6	-1.5405627
1333.7	-1.5405632
1332.7	-1.5406839
1331.7	-1.5407809
1330.8	-1.5407265
1329.8	-1.5405933
1328.9	-1.5405542
1327.9	-1.5406286
1326.9	-1.5406928
1326.0	-1.5406669
1325.0	-1.5405788
1324.0	-1.5405239
1323.1	-1.5405625
1322.1	-1.5406617
1321.1	-1.5407081
1320.2	-1.5406308
1319.2	-1.5404963
1318.2	-1.5403957
1317.3	-1.5403514
1316.3	-1.5403093
1315.4	-1.5401946
1314.4	-1.5400929
1313.4	-1.5401741
1312.5	-1.5403403
1311.5	-1.5403552
1310.5	-1.5402774
1309.6	-1.5402895
1308.6	-1.5403308
1307.6	-1.5402422
1306.7	-1.5400101
1305.7	-1.5397618
1304.7	-1.5396181
1303.8	-1.5395441
1302.8	-1.5394547
1301.9	-1.5393862
1300.9	-1.5393714
1299.9	-1.5393794
1299.0	-1.5393531
1298.0	-1.5391785
1297.0	-1.5389245
1296.1	-1.5388168
1295.1	-1.5388025
1294.1	-1.5386783
1293.2	-1.5384464
1292.2	-1.5382165
1291.2	-1.5380348
1290.3	-1.5378710
1289.3	-1.5376745
1288.4	-1.5374398
1287.4	-1.5371493
1286.4	-1.5366970
1285.5	-1.5361398
1284.5	-1.5356810
1283.5	-1.5352712
1282.6	-1.5348731
1281.6	-1.5346762
1280.6	-1.5347393
1279.7	-1.5349495
1278.7	-1.5350682
1277.7	-1.5349361
1276.8	-1.5348510
1275.8	-1.5350378
1274.8	-1.5352041
1273.9	-1.5352297
1272.9	-1.5352943
1272.0	-1.5354272
1271.0	-1.5355897
1270.0	-1.5356920
1269.1	-1.5356439
1268.1	-1.5355790
1267.1	-1.5357007
1266.2	-1.5359935
1265.2	-1.5363108
1264.2	-1.5366619
1263.3	-1.5370758
1262.3	-1.5373832
1261.3	-1.5374968
1260.4	-1.5375834
1259.4	-1.5377405
1258.5	-1.5378824
1257.5	-1.5378925
1256.5	-1.5376928
1255.6	-1.5373565
1254.6	-1.5368974
1253.6	-1.5361590
1252.7	-1.5351990
1251.7	-1.5342059
1250.7	-1.5331721
1249.8	-1.5320401
1248.8	-1.5309612
1247.8	-1.5303426
1246.9	-1.5304607
1245.9	-1.5311031
1245.0	-1.5318451
1244.0	-1.5319778
1243.0	-1.5309883
1242.1	-1.5300434
1241.1	-1.5303937
1240.1	-1.5310676
1239.2	-1.5310094
1238.2	-1.5306575
1237.2	-1.5304021
1236.3	-1.5301751
1235.3	-1.5300653
1234.3	-1.5302669
1233.4	-1.5308906
1232.4	-1.5317786
1231.5	-1.5326095
1230.5	-1.5332799
1229.5	-1.5338392
1228.6	-1.5342830
1227.6	-1.5346941
1226.6	-1.5353019
1225.7	-1.5361460
1224.7	-1.5369842
1223.7	-1.5376788
1222.8	-1.5382059
1221.8	-1.5384723
1220.8	-1.5384851
1219.9	-1.5384846
1218.9	-1.5387123
1218.0	-1.5391022
1217.0	-1.5394232
1216.0	-1.5394959
1215.1	-1.5393450
1214.1	-1.5392216
1213.1	-1.5392385
1212.2	-1.5393602
1211.2	-1.5395720
1210.2	-1.5398339
1209.3	-1.5400860
1208.3	-1.5401865
1207.3	-1.5400946
1206.4	-1.5400054
1205.4	-1.5400233
1204.5	-1.5400405
1203.5	-1.5400382
1202.5	-1.5401497
1201.6	-1.5403512
1200.6	-1.5405067
1199.6	-1.5405762
1198.7	-1.5406030
1197.7	-1.5407202
1196.7	-1.5409234
1195.8	-1.5410457
1194.8	-1.5411260
1193.8	-1.5412368
1192.9	-1.5413243
1191.9	-1.5414437
1191.0	-1.5416028
1190.0	-1.5417272
1189.0	-1.5417800
1188.1	-1.5416477
1187.1	-1.5414010
1186.1	-1.5412472
1185.2	-1.5410085
1184.2	-1.5404530
1183.2	-1.5397824
1182.3	-1.5395181
1181.3	-1.5402343
1180.3	-1.5416174
1179.4	-1.5424089
1178.4	-1.5422300
1177.5	-1.5416131
1176.5	-1.5408070
1175.5	-1.5399228
1174.6	-1.5391524
1173.6	-1.5386810
1172.6	-1.5384622
1171.7	-1.5381513
1170.7	-1.5376270
1169.7	-1.5371779
1168.8	-1.5371033
1167.8	-1.5372882
1166.8	-1.5373278
1165.9	-1.5368322
1164.9	-1.5357780
1164.0	-1.5349160
1163.0	-1.5347729
1162.0	-1.5349115
1161.1	-1.5349452
1160.1	-1.5348264
1159.1	-1.5346375
1158.2	-1.5347289
1157.2	-1.5351479
1156.2	-1.5354997
1155.3	-1.5358033
1154.3	-1.5363791
1153.3	-1.5369923
1152.4	-1.5371870
1151.4	-1.5370331
1150.5	-1.5369103
1149.5	-1.5370107
1148.5	-1.5372381
1147.6	-1.5374094
1146.6	-1.5376011
1145.6	-1.5381616
1144.7	-1.5391524
1143.7	-1.5401984
1142.7	-1.5410149
1141.8	-1.5416446
1140.8	-1.5422583
1139.8	-1.5428138
1138.9	-1.5430644
1137.9	-1.5429825
1136.9	-1.5427449
1136.0	-1.5425395
1135.0	-1.5426036
1134.1	-1.5429168
1133.1	-1.5430446
1132.1	-1.5428295
1131.2	-1.5426830
1130.2	-1.5428469
1129.2	-1.5431763
1128.3	-1.5435077
1127.3	-1.5436853
1126.3	-1.5436811
1125.4	-1.5436205
1124.4	-1.5435848
1123.4	-1.5436708
1122.5	-1.5438762
1121.5	-1.5439281
1120.6	-1.5437169
1119.6	-1.5435313
1118.6	-1.5435328
1117.7	-1.5436256
1116.7	-1.5437864
1115.7	-1.5439568
1114.8	-1.5439509
1113.8	-1.5437989
1112.8	-1.5437233
1111.9	-1.5436264
1110.9	-1.5433180
1109.9	-1.5430439
1109.0	-1.5430096
1108.0	-1.5431060
1107.1	-1.5432862
1106.1	-1.5433685
1105.1	-1.5430568
1104.2	-1.5426472
1103.2	-1.5426046
1102.2	-1.5425762
1101.3	-1.5421544
1100.3	-1.5416862
1099.3	-1.5413086
1098.4	-1.5406832
1097.4	-1.5397893
1096.4	-1.5389625
1095.5	-1.5384147
1094.5	-1.5378803
1093.6	-1.5371003
1092.6	-1.5363938
1091.6	-1.5362350
1090.7	-1.5366033
1089.7	-1.5370481
1088.7	-1.5374217
1087.8	-1.5372722
1086.8	-1.5362386
1085.8	-1.5359094
1084.9	-1.5370461
1083.9	-1.5377339
1082.9	-1.5371763
1082.0	-1.5364717
1081.0	-1.5362003
1080.1	-1.5361587
1079.1	-1.5363300
1078.1	-1.5368609
1077.2	-1.5375341
1076.2	-1.5383016
1075.2	-1.5394741
1074.3	-1.5409313
1073.3	-1.5420737
1072.3	-1.5425239
1071.4	-1.5425800
1070.4	-1.5426929
1069.4	-1.5428332
1068.5	-1.5429418
1067.5	-1.5431792
1066.6	-1.5435367
1065.6	-1.5439245
1064.6	-1.5442235
1063.7	-1.5442964
1062.7	-1.5443350
1061.7	-1.5444810
1060.8	-1.5444691
1059.8	-1.5442957
1058.8	-1.5443647
1057.9	-1.5447426
1056.9	-1.5450410
1055.9	-1.5451298
1055.0	-1.5452288
1054.0	-1.5452746
1053.1	-1.5451337
1052.1	-1.5451751
1051.1	-1.5457811
1050.2	-1.5466459
1049.2	-1.5472127
1048.2	-1.5473522
1047.3	-1.5470439
1046.3	-1.5464280
1045.3	-1.5459017
1044.4	-1.5454835
1043.4	-1.5452952
1042.4	-1.5456866
1041.5	-1.5462333
1040.5	-1.5463784
1039.6	-1.5463214
1038.6	-1.5461833
1037.6	-1.5460202
1036.7	-1.5462265
1035.7	-1.5463079
1034.7	-1.5457001
1033.8	-1.5452089
1032.8	-1.5452771
1031.8	-1.5453440
1030.9	-1.5449084
1029.9	-1.5440993
1028.9	-1.5435144
1028.0	-1.5429462
1027.0	-1.5416280
1026.1	-1.5398372
1025.1	-1.5388044
1024.1	-1.5389473
1023.2	-1.5390497
1022.2	-1.5380936
1021.2	-1.5367427
1020.3	-1.5355735
1019.3	-1.5337864
1018.3	-1.5316212
1017.4	-1.5308692
1016.4	-1.5318031
1015.4	-1.5328531
1014.5	-1.5329338
1013.5	-1.5326005
1012.6	-1.5324968
1011.6	-1.5326965
1010.6	-1.5341021
1009.7	-1.5364420
1008.7	-1.5375489
1007.7	-1.5367850
1006.8	-1.5351019
1005.8	-1.5337038
1004.8	-1.5340110
1003.9	-1.5358422
1002.9	-1.5371970
1001.9	-1.5374873
1001.0	-1.5382493
1000.0	-1.5402490
999.1	-1.5423666
998.1	-1.5437596
997.1	-1.5450169
996.2	-1.5461233
995.2	-1.5463213
994.2	-1.5465879
993.3	-1.5480838
992.3	-1.5494699
991.3	-1.5493476
990.4	-1.5483077
989.4	-1.5474628
988.4	-1.5476372
987.5	-1.5487670
986.5	-1.5499511
985.5	-1.5510186
984.6	-1.5521373
983.6	-1.5527250
982.7	-1.5526353
981.7	-1.5525416
980.7	-1.5528287
979.8	-1.5532155
978.8	-1.5526439
977.8	-1.5510138
976.9	-1.5502698
975.9	-1.5511080
974.9	-1.5519468
974.0	-1.5522503
973.0	-1.5530516
972.0	-1.5542798
971.1	-1.5551673
970.1	-1.5557133
969.2	-1.5556571
968.2	-1.5554813
967.2	-1.5565658
966.3	-1.5578589
965.3	-1.5570877
964.3	-1.5556015
963.4	-1.5556251
962.4	-1.5553700
961.4	-1.5538738
960.5	-1.5532339
959.5	-1.5536728
958.5	-1.5536958
957.6	-1.5524801
956.6	-1.5510919
955.7	-1.5513415
954.7	-1.5520489
953.7	-1.5511611
952.8	-1.5499619
951.8	-1.5503223
950.8	-1.5520668
949.9	-1.5536671
