3998.1	-1.5041847
3997.2	-1.5040008
3996.2	-1.5042048
3995.2	-1.5044419
3994.3	-1.5039808
3993.3	-1.5031322
3992.3	-1.5028861
3991.4	-1.5035458
3990.4	-1.5046412
3989.5	-1.5049825
3988.5	-1.5044539
3987.5	-1.5046105
3986.6	-1.5053568
3985.6	-1.5050361
3984.6	-1.5042092
3983.7	-1.5044738
3982.7	-1.5052358
3981.7	-1.5056442
3980.8	-1.5062011
3979.8	-1.5066599
3978.8	-1.5062504
3977.9	-1.5054405
3976.9	-1.5049711
3975.9	-1.5047611
3975.0	-1.5047890
3974.0	-1.5054343
3973.1	-1.5064267
3972.1	-1.5067381
3971.1	-1.5063039
3970.2	-1.5061830
3969.2	-1.5063325
3968.2	-1.5058942
3967.3	-1.5050249
3966.3	-1.5044158
3965.3	-1.5041904
3964.4	-1.5039979
3963.4	-1.5040112
3962.4	-1.5046302
3961.5	-1.5054449
3960.5	-1.5060686
3959.6	-1.5065660
3958.6	-1.5064869
3957.6	-1.5055617
3956.7	-1.5049751
3955.7	-1.5055994
3954.7	-1.5063888
3953.8	-1.5063617
3952.8	-1.5060420
3951.8	-1.5060217
3950.9	-1.5059737
3949.9	-1.5058374
3948.9	-1.5059768
3948.0	-1.5060344
3947.0	-1.5057107
3946.1	-1.5055879
3945.1	-1.5059807
3944.1	-1.5061333
3943.2	-1.5056846
3942.2	-1.5056360
3941.2	-1.5063664
3940.3	-1.5069296
3939.3	-1.5069866
3938.3	-1.5069219
3937.4	-1.5066055
3936.4	-1.5061576
3935.4	-1.5061566
3934.5	-1.5064775
3933.5	-1.5069457
3932.6	-1.5074382
3931.6	-1.5073049
3930.6	-1.5066268
3929.7	-1.5062340
3928.7	-1.5062680
3927.7	-1.5062327
3926.8	-1.5058445
3925.8	-1.5055562
3924.8	-1.5061551
3923.9	-1.5071177
3922.9	-1.5069875
3921.9	-1.5059496
3921.0	-1.5055122
3920.0	-1.5059613
3919.1	-1.5061891
3918.1	-1.5058066
3917.1	-1.5055929
3916.2	-1.5058875
3915.2	-1.5060971
3914.2	-1.5057076
3913.3	-1.5050406
3912.3	-1.5047225
3911.3	-1.5050644
3910.4	-1.5059773
3909.4	-1.5067685
3908.4	-1.5066521
3907.5	-1.5058448
3906.5	-1.5051591
3905.6	-1.5048754
3904.6	-1.5051225
3903.6	-1.5057018
3902.7	-1.5060259
3901.7	-1.5060048
3900.7	-1.5056714
3899.8	-1.5057080
3898.8	-1.5065975
3897.8	-1.5069051
3896.9	-1.5060675
3895.9	-1.5057065
3894.9	-1.5063497
3894.0	-1.5066296
3893.0	-1.5063025
3892.1	-1.5066582
3891.1	-1.5077429
3890.1	-1.5083292
3889.2	-1.5081187
3888.2	-1.5072688
3887.2	-1.5058256
3886.3	-1.5053724
3885.3	-1.5064102
3884.3	-1.5064273
3883.4	-1.5049280
3882.4	-1.5037898
3881.4	-1.5036654
3880.5	-1.5045352
3879.5	-1.5062817
3878.6	-1.5078963
3877.6	-1.5081894
3876.6	-1.5071900
3875.7	-1.5061219
3874.7	-1.5061976
3873.7	-1.5072035
3872.8	-1.5074922
3871.8	-1.5064665
3870.8	-1.5059280
3869.9	-1.5070391
3868.9	-1.5080714
3867.9	-1.5077094
3867.0	-1.5066741
3866.0	-1.5058366
3865.1	-1.5056556
3864.1	-1.5058156
3863.1	-1.5059081
3862.2	-1.5061860
3861.2	-1.5064867
3860.2	-1.5064650
3859.3	-1.5063426
3858.3	-1.5063618
3857.3	-1.5062541
3856.4	-1.5048871
3855.4	-1.5031645
3854.4	-1.5048490
3853.5	-1.5088928
3852.5	-1.5105206
3851.6	-1.5100504
3850.6	-1.5094268
3849.6	-1.5086901
3848.7	-1.5081111
3847.7	-1.5080040
3846.7	-1.5082726
3845.8	-1.5082113
3844.8	-1.5076492
3843.8	-1.5076091
3842.9	-1.5080976
3841.9	-1.5081999
3840.9	-1.5080259
3840.0	-1.5075659
3839.0	-1.5067289
3838.0	-1.5068145
3837.1	-1.5075499
3836.1	-1.5074582
3835.2	-1.5075886
3834.2	-1.5082953
3833.2	-1.5079569
3832.3	-1.5071548
3831.3	-1.5074147
3830.3	-1.5078533
3829.4	-1.5071808
3828.4	-1.5060205
3827.4	-1.5057423
3826.5	-1.5068611
3825.5	-1.5083461
3824.5	-1.5085324
3823.6	-1.5073295
3822.6	-1.5062150
3821.7	-1.5065105
3820.7	-1.5080291
3819.7	-1.5089725
3818.8	-1.5083340
3817.8	-1.5069450
3816.8	-1.5065449
3815.9	-1.5080670
3814.9	-1.5094528
3813.9	-1.5089700
3813.0	-1.5079213
3812.0	-1.5075936
3811.0	-1.5082037
3810.1	-1.5088763
3809.1	-1.5083061
3808.2	-1.5075918
3807.2	-1.5087351
3806.2	-1.5100980
3805.3	-1.5089587
3804.3	-1.5067182
3803.3	-1.5057034
3802.4	-1.5061084
3801.4	-1.5076942
3800.4	-1.5092150
3799.5	-1.5088605
3798.5	-1.5068605
3797.5	-1.5050868
3796.6	-1.5049014
3795.6	-1.5059028
3794.7	-1.5069021
3793.7	-1.5078439
3792.7	-1.5089165
3791.8	-1.5092095
3790.8	-1.5084224
3789.8	-1.5076498
3788.9	-1.5076902
3787.9	-1.5083127
3786.9	-1.5088844
3786.0	-1.5088384
3785.0	-1.5084629
3784.0	-1.5086255
3783.1	-1.5088682
3782.1	-1.5083686
3781.2	-1.5076113
3780.2	-1.5072858
3779.2	-1.5074499
3778.3	-1.5075897
3777.3	-1.5074868
3776.3	-1.5076469
3775.4	-1.5082146
3774.4	-1.5086755
3773.4	-1.5086409
3772.5	-1.5079695
3771.5	-1.5067503
3770.5	-1.5059719
3769.6	-1.5065573
3768.6	-1.5077269
3767.7	-1.5079056
3766.7	-1.5071470
3765.7	-1.5071473
3764.8	-1.5077893
3763.8	-1.5070984
3762.8	-1.5051845
3761.9	-1.5040352
3760.9	-1.5046259
3759.9	-1.5065535
3759.0	-1.5085797
3758.0	-1.5094681
3757.0	-1.5093913
3756.1	-1.5091946
3755.1	-1.5088363
3754.2	-1.5075217
3753.2	-1.5061780
3752.2	-1.5071328
3751.3	-1.5087891
3750.3	-1.5087208
3749.3	-1.5084820
3748.4	-1.5085807
3747.4	-1.5076710
3746.4	-1.5055521
3745.5	-1.5044587
3744.5	-1.5071951
3743.5	-1.5105579
3742.6	-1.5101297
3741.6	-1.5084499
3740.7	-1.5086131
3739.7	-1.5092529
3738.7	-1.5086960
3737.8	-1.5079229
3736.8	-1.5083504
3735.8	-1.5092429
3734.9	-1.5091079
3733.9	-1.5080400
3732.9	-1.5073930
3732.0	-1.5077622
3731.0	-1.5082393
3730.0	-1.5084138
3729.1	-1.5086390
3728.1	-1.5086493
3727.2	-1.5082409
3726.2	-1.5075994
3725.2	-1.5069951
3724.3	-1.5069165
3723.3	-1.5076662
3722.3	-1.5087690
3721.4	-1.5092040
3720.4	-1.5087920
3719.4	-1.5083618
3718.5	-1.5083538
3717.5	-1.5084385
3716.5	-1.5083493
3715.6	-1.5081536
3714.6	-1.5074908
3713.7	-1.5062891
3712.7	-1.5060344
3711.7	-1.5073652
3710.8	-1.5084958
3709.8	-1.5087188
3708.8	-1.5087843
3707.9	-1.5084883
3706.9	-1.5079707
3705.9	-1.5079725
3705.0	-1.5083358
3704.0	-1.5082095
3703.0	-1.5073376
3702.1	-1.5069038
3701.1	-1.5072796
3700.1	-1.5071918
3699.2	-1.5070699
3698.2	-1.5082436
3697.3	-1.5094415
3696.3	-1.5090532
3695.3	-1.5080721
3694.4	-1.5078812
3693.4	-1.5080279
3692.4	-1.5077631
3691.5	-1.5078021
3690.5	-1.5080626
3689.5	-1.5078152
3688.6	-1.5086243
3687.6	-1.5102924
3686.6	-1.5101703
3685.7	-1.5091624
3684.7	-1.5092542
3683.8	-1.5097131
3682.8	-1.5097543
3681.8	-1.5095916
3680.9	-1.5092137
3679.9	-1.5087731
3678.9	-1.5084515
3678.0	-1.5074185
3677.0	-1.5060177
3676.0	-1.5066403
3675.1	-1.5091405
3674.1	-1.5105797
3673.1	-1.5097420
3672.2	-1.5078206
3671.2	-1.5072395
3670.3	-1.5087678
3669.3	-1.5099844
3668.3	-1.5096698
3667.4	-1.5091431
3666.4	-1.5090756
3665.4	-1.5090185
3664.5	-1.5086365
3663.5	-1.5081719
3662.5	-1.5079383
3661.6	-1.5077990
3660.6	-1.5075631
3659.6	-1.5074984
3658.7	-1.5076638
3657.7	-1.5078305
3656.8	-1.5087161
3655.8	-1.5102365
3654.8	-1.5105165
3653.9	-1.5091009
3652.9	-1.5075060
3651.9	-1.5070339
3651.0	-1.5075581
3650.0	-1.5084869
3649.0	-1.5096145
3648.1	-1.5100416
3647.1	-1.5095181
3646.1	-1.5094066
3645.2	-1.5100387
3644.2	-1.5100521
3643.3	-1.5090531
3642.3	-1.5084529
3641.3	-1.5089403
3640.4	-1.5095913
3639.4	-1.5095066
3638.4	-1.5089372
3637.5	-1.5085454
3636.5	-1.5082445
3635.5	-1.5081079
3634.6	-1.5085491
3633.6	-1.5092117
3632.6	-1.5093499
3631.7	-1.5085697
3630.7	-1.5073467
3629.8	-1.5071054
3628.8	-1.5084605
3627.8	-1.5098991
3626.9	-1.5102235
3625.9	-1.5101315
3624.9	-1.5101718
3624.0	-1.5100811
3623.0	-1.5096097
3622.0	-1.5086964
3621.1	-1.5078918
3620.1	-1.5079503
3619.1	-1.5085838
3618.2	-1.5092155
3617.2	-1.5097163
3616.3	-1.5094792
3615.3	-1.5084935
3614.3	-1.5080098
3613.4	-1.5087024
3612.4	-1.5098629
3611.4	-1.5101510
3610.5	-1.5095899
3609.5	-1.5096228
3608.5	-1.5100533
3607.6	-1.5097054
3606.6	-1.5093271
3605.6	-1.5096078
3604.7	-1.5096408
3603.7	-1.5092711
3602.8	-1.5091209
3601.8	-1.5089831
3600.8	-1.5085204
3599.9	-1.5080822
3598.9	-1.5078918
3597.9	-1.5075507
3597.0	-1.5071470
3596.0	-1.5074508
3595.0	-1.5081762
3594.1	-1.5082678
3593.1	-1.5079476
3592.1	-1.5078931
3591.2	-1.5077698
3590.2	-1.5074520
3589.3	-1.5076675
3588.3	-1.5083257
3587.3	-1.5083945
3586.4	-1.5080814
3585.4	-1.5082732
3584.4	-1.5085216
3583.5	-1.5081971
3582.5	-1.5078434
3581.5	-1.5080262
3580.6	-1.5084059
3579.6	-1.5085754
3578.6	-1.5087068
3577.7	-1.5092323
3576.7	-1.5099870
3575.8	-1.5100249
3574.8	-1.5092191
3573.8	-1.5085578
3572.9	-1.5086406
3571.9	-1.5091953
3570.9	-1.5094726
3570.0	-1.5090443
3569.0	-1.5084373
3568.0	-1.5085039
3567.1	-1.5091882
3566.1	-1.5096167
3565.1	-1.5092822
3564.2	-1.5086054
3563.2	-1.5083907
3562.3	-1.5088089
3561.3	-1.5094954
3560.3	-1.5099477
3559.4	-1.5095534
3558.4	-1.5087631
3557.4	-1.5088023
3556.5	-1.5094849
3555.5	-1.5098900
3554.5	-1.5099835
3553.6	-1.5097686
3552.6	-1.5090841
3551.6	-1.5082165
3550.7	-1.5077869
3549.7	-1.5084658
3548.7	-1.5098224
3547.8	-1.5105120
3546.8	-1.5104586
3545.9	-1.5105063
3544.9	-1.5105463
3543.9	-1.5102433
3543.0	-1.5099101
3542.0	-1.5096475
3541.0	-1.5093484
3540.1	-1.5092448
3539.1	-1.5093977
3538.1	-1.5093888
3537.2	-1.5089468
3536.2	-1.5086211
3535.2	-1.5093144
3534.3	-1.5104684
3533.3	-1.5105731
3532.4	-1.5100467
3531.4	-1.5100176
3530.4	-1.5100746
3529.5	-1.5100281
3528.5	-1.5103272
3527.5	-1.5106720
3526.6	-1.5106107
3525.6	-1.5103076
3524.6	-1.5100967
3523.7	-1.5101134
3522.7	-1.5104069
3521.7	-1.5108721
3520.8	-1.5109124
3519.8	-1.5101492
3518.9	-1.5096335
3517.9	-1.5102055
3516.9	-1.5107305
3516.0	-1.5103565
3515.0	-1.5098131
3514.0	-1.5097852
3513.1	-1.5102854
3512.1	-1.5109675
3511.1	-1.5115994
3510.2	-1.5120740
3509.2	-1.5121602
3508.2	-1.5118153
3507.3	-1.5109074
3506.3	-1.5096591
3505.4	-1.5089869
3504.4	-1.5090554
3503.4	-1.5094198
3502.5	-1.5098028
3501.5	-1.5099586
3500.5	-1.5099984
3499.6	-1.5100539
3498.6	-1.5102421
3497.6	-1.5108124
3496.7	-1.5114083
3495.7	-1.5115408
3494.7	-1.5113850
3493.8	-1.5110551
3492.8	-1.5104429
3491.9	-1.5100123
3490.9	-1.5101218
3489.9	-1.5103132
3489.0	-1.5102888
3488.0	-1.5103093
3487.0	-1.5105050
3486.1	-1.5106201
3485.1	-1.5103972
3484.1	-1.5101055
3483.2	-1.5103304
3482.2	-1.5108048
3481.2	-1.5107481
3480.3	-1.5105644
3479.3	-1.5110141
3478.4	-1.5115616
3477.4	-1.5113163
3476.4	-1.5105458
3475.5	-1.5100459
3474.5	-1.5096895
3473.5	-1.5092525
3472.6	-1.5092360
3471.6	-1.5094482
3470.6	-1.5094047
3469.7	-1.5095501
3468.7	-1.5100309
3467.7	-1.5103221
3466.8	-1.5102853
3465.8	-1.5103496
3464.9	-1.5105957
3463.9	-1.5104458
3462.9	-1.5103738
3462.0	-1.5112525
3461.0	-1.5120615
3460.0	-1.5117903
3459.1	-1.5111731
3458.1	-1.5109807
3457.1	-1.5111202
3456.2	-1.5111408
3455.2	-1.5108929
3454.2	-1.5107957
3453.3	-1.5108185
3452.3	-1.5103432
3451.4	-1.5096512
3450.4	-1.5093880
3449.4	-1.5092841
3448.5	-1.5093249
3447.5	-1.5100553
3446.5	-1.5107721
3445.6	-1.5105193
3444.6	-1.5102925
3443.6	-1.5107569
3442.7	-1.5107203
3441.7	-1.5100341
3440.7	-1.5099018
3439.8	-1.5103903
3438.8	-1.5108509
3437.9	-1.5111073
3436.9	-1.5108541
3435.9	-1.5101364
3435.0	-1.5097893
3434.0	-1.5101510
3433.0	-1.5105404
3432.1	-1.5102645
3431.1	-1.5098568
3430.1	-1.5100499
3429.2	-1.5102524
3428.2	-1.5100034
3427.2	-1.5098476
3426.3	-1.5099996
3425.3	-1.5101254
3424.4	-1.5100007
3423.4	-1.5097284
3422.4	-1.5097758
3421.5	-1.5101641
3420.5	-1.5102403
3419.5	-1.5099052
3418.6	-1.5097116
3417.6	-1.5102296
3416.6	-1.5113615
3415.7	-1.5120933
3414.7	-1.5119143
3413.7	-1.5112271
3412.8	-1.5105277
3411.8	-1.5101769
3410.8	-1.5100741
3409.9	-1.5098516
3408.9	-1.5093704
3408.0	-1.5087922
3407.0	-1.5086979
3406.0	-1.5093231
3405.1	-1.5100207
3404.1	-1.5103748
3403.1	-1.5104784
3402.2	-1.5103838
3401.2	-1.5102682
3400.2	-1.5103750
3399.3	-1.5107771
3398.3	-1.5111810
3397.3	-1.5111241
3396.4	-1.5107551
3395.4	-1.5105385
3394.5	-1.5102521
3393.5	-1.5096260
3392.5	-1.5092119
3391.6	-1.5094057
3390.6	-1.5098115
3389.6	-1.5097834
3388.7	-1.5092034
3387.7	-1.5087739
3386.7	-1.5088539
3385.8	-1.5091832
3384.8	-1.5098212
3383.8	-1.5105711
3382.9	-1.5107898
3381.9	-1.5106360
3381.0	-1.5107857
3380.0	-1.5113213
3379.0	-1.5117940
3378.1	-1.5116553
3377.1	-1.5110846
3376.1	-1.5109100
3375.2	-1.5110747
3374.2	-1.5109969
3373.2	-1.5108100
3372.3	-1.5106502
3371.3	-1.5102680
3370.3	-1.5098766
3369.4	-1.5099330
3368.4	-1.5103703
3367.5	-1.5107700
3366.5	-1.5106494
3365.5	-1.5100032
3364.6	-1.5097145
3363.6	-1.5103813
3362.6	-1.5114644
3361.7	-1.5121927
3360.7	-1.5122706
3359.7	-1.5119044
3358.8	-1.5116463
3357.8	-1.5115700
3356.8	-1.5113841
3355.9	-1.5112745
3354.9	-1.5111288
3354.0	-1.5107145
3353.0	-1.5106988
3352.0	-1.5112097
3351.1	-1.5113746
3350.1	-1.5110242
3349.1	-1.5108203
3348.2	-1.5111821
3347.2	-1.5116674
3346.2	-1.5115558
3345.3	-1.5112271
3344.3	-1.5115258
3343.3	-1.5118960
3342.4	-1.5114022
3341.4	-1.5105540
3340.5	-1.5099119
3339.5	-1.5094945
3338.5	-1.5097193
3337.6	-1.5102736
3336.6	-1.5104735
3335.6	-1.5107548
3334.7	-1.5114833
3333.7	-1.5120673
3332.7	-1.5120256
3331.8	-1.5118062
3330.8	-1.5117489
3329.8	-1.5114497
3328.9	-1.5112189
3327.9	-1.5116929
3327.0	-1.5119898
3326.0	-1.5112324
3325.0	-1.5106012
3324.1	-1.5110675
3323.1	-1.5114900
3322.1	-1.5109996
3321.2	-1.5105199
3320.2	-1.5109301
3319.2	-1.5117390
3318.3	-1.5122204
3317.3	-1.5123419
3316.3	-1.5121342
3315.4	-1.5118202
3314.4	-1.5118763
3313.5	-1.5119655
3312.5	-1.5116218
3311.5	-1.5113132
3310.6	-1.5112364
3309.6	-1.5111228
3308.6	-1.5111221
3307.7	-1.5112375
3306.7	-1.5114136
3305.7	-1.5117301
3304.8	-1.5117741
3303.8	-1.5115277
3302.8	-1.5116870
3301.9	-1.5120804
3300.9	-1.5118752
3300.0	-1.5113291
3299.0	-1.5112696
3298.0	-1.5114634
3297.1	-1.5113958
3296.1	-1.5113242
3295.1	-1.5111893
3294.2	-1.5107589
3293.2	-1.5108136
3292.2	-1.5115780
3291.3	-1.5118819
3290.3	-1.5115761
3289.3	-1.5117217
3288.4	-1.5122825
3287.4	-1.5124217
3286.5	-1.5120308
3285.5	-1.5116571
3284.5	-1.5117211
3283.6	-1.5118636
3282.6	-1.5117517
3281.6	-1.5118533
3280.7	-1.5121316
3279.7	-1.5120510
3278.7	-1.5118434
3277.8	-1.5118353
3276.8	-1.5118430
3275.8	-1.5118965
3274.9	-1.5120807
3273.9	-1.5119842
3272.9	-1.5115254
3272.0	-1.5113410
3271.0	-1.5116544
3270.1	-1.5118357
3269.1	-1.5113537
3268.1	-1.5107952
3267.2	-1.5111504
3266.2	-1.5121071
3265.2	-1.5127062
3264.3	-1.5127933
3263.3	-1.5124787
3262.3	-1.5120622
3261.4	-1.5122278
3260.4	-1.5128058
3259.4	-1.5128669
3258.5	-1.5123333
3257.5	-1.5118687
3256.6	-1.5116622
3255.6	-1.5115165
3254.6	-1.5113873
3253.7	-1.5113941
3252.7	-1.5116758
3251.7	-1.5121211
3250.8	-1.5124972
3249.8	-1.5126342
3248.8	-1.5122615
3247.9	-1.5115119
3246.9	-1.5113394
3245.9	-1.5120108
3245.0	-1.5122298
3244.0	-1.5114493
3243.1	-1.5107975
3242.1	-1.5108962
3241.1	-1.5111983
3240.2	-1.5112610
3239.2	-1.5112149
3238.2	-1.5112678
3237.3	-1.5116017
3236.3	-1.5122275
3235.3	-1.5126812
3234.4	-1.5126445
3233.4	-1.5124537
3232.4	-1.5125010
3231.5	-1.5126990
3230.5	-1.5127835
3229.6	-1.5125932
3228.6	-1.5122384
3227.6	-1.5119568
3226.7	-1.5116208
3225.7	-1.5113384
3224.7	-1.5114594
3223.8	-1.5115794
3222.8	-1.5113846
3221.8	-1.5114486
3220.9	-1.5119132
3219.9	-1.5121359
3218.9	-1.5119041
3218.0	-1.5115063
3217.0	-1.5112251
3216.1	-1.5113195
3215.1	-1.5118101
3214.1	-1.5122451
3213.2	-1.5121481
3212.2	-1.5117480
3211.2	-1.5115211
3210.3	-1.5114605
3209.3	-1.5113202
3208.3	-1.5111996
3207.4	-1.5115004
3206.4	-1.5119308
3205.4	-1.5117692
3204.5	-1.5111215
3203.5	-1.5107317
3202.6	-1.5110475
3201.6	-1.5117599
3200.6	-1.5122862
3199.7	-1.5124154
3198.7	-1.5122610
3197.7	-1.5121105
3196.8	-1.5120621
3195.8	-1.5118152
3194.8	-1.5115061
3193.9	-1.5117333
3192.9	-1.5121899
3191.9	-1.5121186
3191.0	-1.5118034
3190.0	-1.5118610
3189.1	-1.5119989
3188.1	-1.5117272
3187.1	-1.5113393
3186.2	-1.5112838
3185.2	-1.5114700
3184.2	-1.5115550
3183.3	-1.5115080
3182.3	-1.5115958
3181.3	-1.5118129
3180.4	-1.5119784
3179.4	-1.5121138
3178.4	-1.5120627
3177.5	-1.5114275
3176.5	-1.5105965
3175.6	-1.5104666
3174.6	-1.5109643
3173.6	-1.5114766
3172.7	-1.5118251
3171.7	-1.5120565
3170.7	-1.5120889
3169.8	-1.5118955
3168.8	-1.5117060
3167.8	-1.5115296
3166.9	-1.5114959
3165.9	-1.5121201
3164.9	-1.5128834
3164.0	-1.5125945
3163.0	-1.5116508
3162.1	-1.5113660
3161.1	-1.5116885
3160.1	-1.5116998
3159.2	-1.5113105
3158.2	-1.5111853
3157.2	-1.5115380
3156.3	-1.5121119
3155.3	-1.5128351
3154.3	-1.5133928
3153.4	-1.5131940
3152.4	-1.5122011
3151.4	-1.5113808
3150.5	-1.5115680
3149.5	-1.5119631
3148.6	-1.5117183
3147.6	-1.5114025
3146.6	-1.5113467
3145.7	-1.5111966
3144.7	-1.5111580
3143.7	-1.5115284
3142.8	-1.5117167
3141.8	-1.5114118
3140.8	-1.5114504
3139.9	-1.5121032
3138.9	-1.5123016
3137.9	-1.5116236
3137.0	-1.5110595
3136.0	-1.5110939
3135.1	-1.5112641
3134.1	-1.5114093
3133.1	-1.5114080
3132.2	-1.5111070
3131.2	-1.5109464
3130.2	-1.5111957
3129.3	-1.5115520
3128.3	-1.5115889
3127.3	-1.5111352
3126.4	-1.5106958
3125.4	-1.5105621
3124.4	-1.5104569
3123.5	-1.5106924
3122.5	-1.5114820
3121.5	-1.5123264
3120.6	-1.5130725
3119.6	-1.5135570
3118.7	-1.5132378
3117.7	-1.5123291
3116.7	-1.5117078
3115.8	-1.5115681
3114.8	-1.5115677
3113.8	-1.5118098
3112.9	-1.5122675
3111.9	-1.5123419
3110.9	-1.5117891
3110.0	-1.5111206
3109.0	-1.5110358
3108.0	-1.5115092
3107.1	-1.5118507
3106.1	-1.5119210
3105.2	-1.5121182
3104.2	-1.5122830
3103.2	-1.5120097
3102.3	-1.5116017
3101.3	-1.5115842
3100.3	-1.5118864
3099.4	-1.5120622
3098.4	-1.5119370
3097.4	-1.5117264
3096.5	-1.5116903
3095.5	-1.5119636
3094.5	-1.5122573
3093.6	-1.5121493
3092.6	-1.5119269
3091.7	-1.5121720
3090.7	-1.5126768
3089.7	-1.5125780
3088.8	-1.5120085
3087.8	-1.5120071
3086.8	-1.5124322
3085.9	-1.5125062
3084.9	-1.5122886
3083.9	-1.5120986
3083.0	-1.5118645
3082.0	-1.5114480
3081.0	-1.5113384
3080.1	-1.5118246
3079.1	-1.5120927
3078.2	-1.5117621
3077.2	-1.5115540
3076.2	-1.5119314
3075.3	-1.5124217
3074.3	-1.5124935
3073.3	-1.5124125
3072.4	-1.5123305
3071.4	-1.5121129
3070.4	-1.5120897
3069.5	-1.5122888
3068.5	-1.5123429
3067.5	-1.5121882
3066.6	-1.5119309
3065.6	-1.5117693
3064.7	-1.5119585
3063.7	-1.5123987
3062.7	-1.5123736
3061.8	-1.5117189
3060.8	-1.5114622
3059.8	-1.5119644
3058.9	-1.5124098
3057.9	-1.5123816
3056.9	-1.5122361
3056.0	-1.5122627
3055.0	-1.5122077
3054.0	-1.5119582
3053.1	-1.5119084
3052.1	-1.5122136
3051.2	-1.5126708
3050.2	-1.5130472
3049.2	-1.5130768
3048.3	-1.5124948
3047.3	-1.5115556
3046.3	-1.5112293
3045.4	-1.5117199
3044.4	-1.5121022
3043.4	-1.5120867
3042.5	-1.5121452
3041.5	-1.5124874
3040.5	-1.5128049
3039.6	-1.5125852
3038.6	-1.5120531
3037.7	-1.5119935
3036.7	-1.5123540
3035.7	-1.5125874
3034.8	-1.5127138
3033.8	-1.5126290
3032.8	-1.5121675
3031.9	-1.5119822
3030.9	-1.5123044
3029.9	-1.5124054
3029.0	-1.5121282
3028.0	-1.5120536
3027.0	-1.5124694
3026.1	-1.5129180
3025.1	-1.5127442
3024.2	-1.5121689
3023.2	-1.5119171
3022.2	-1.5120422
3021.3	-1.5121856
3020.3	-1.5122836
3019.3	-1.5124443
3018.4	-1.5126501
3017.4	-1.5127852
3016.4	-1.5127974
3015.5	-1.5126767
3014.5	-1.5124562
3013.5	-1.5123199
3012.6	-1.5123446
3011.6	-1.5123680
3010.7	-1.5123920
3009.7	-1.5125138
3008.7	-1.5125986
3007.8	-1.5126547
3006.8	-1.5128163
3005.8	-1.5128046
3004.9	-1.5125444
3003.9	-1.5126215
3002.9	-1.5130578
3002.0	-1.5131509
3001.0	-1.5128286
3000.0	-1.5125114
2999.1	-1.5122266
2998.1	-1.5119216
2997.2	-1.5118876
2996.2	-1.5123832
2995.2	-1.5130572
2994.3	-1.5131336
2993.3	-1.5125244
2992.3	-1.5120209
2991.4	-1.5120888
2990.4	-1.5125679
2989.4	-1.5131427
2988.5	-1.5134283
2987.5	-1.5133760
2986.5	-1.5134071
2985.6	-1.5137399
2984.6	-1.5140147
2983.6	-1.5138570
2982.7	-1.5136176
2981.7	-1.5137498
2980.8	-1.5138564
2979.8	-1.5135856
2978.8	-1.5133901
2977.9	-1.5134330
2976.9	-1.5132904
2975.9	-1.5130768
2975.0	-1.5133892
2974.0	-1.5140147
2973.0	-1.5141106
2972.1	-1.5137284
2971.1	-1.5135224
2970.1	-1.5134263
2969.2	-1.5131849
2968.2	-1.5130743
2967.3	-1.5132180
2966.3	-1.5133973
2965.3	-1.5135291
2964.4	-1.5136119
2963.4	-1.5135444
2962.4	-1.5132310
2961.5	-1.5129604
2960.5	-1.5132176
2959.5	-1.5138587
2958.6	-1.5143729
2957.6	-1.5146369
2956.6	-1.5147491
2955.7	-1.5147735
2954.7	-1.5147330
2953.8	-1.5145057
2952.8	-1.5139726
2951.8	-1.5133170
2950.9	-1.5129398
2949.9	-1.5130394
2948.9	-1.5134047
2948.0	-1.5138602
2947.0	-1.5142919
2946.0	-1.5142173
2945.1	-1.5135419
2944.1	-1.5130118
2943.1	-1.5131434
2942.2	-1.5135518
2941.2	-1.5136964
2940.3	-1.5136741
2939.3	-1.5136160
2938.3	-1.5134870
2937.4	-1.5134867
2936.4	-1.5134780
2935.4	-1.5132222
2934.5	-1.5130318
2933.5	-1.5132363
2932.5	-1.5137247
2931.6	-1.5141656
2930.6	-1.5144114
2929.6	-1.5145508
2928.7	-1.5146919
2927.7	-1.5147409
2926.8	-1.5145929
2925.8	-1.5146198
2924.8	-1.5150303
2923.9	-1.5153577
2922.9	-1.5154194
2921.9	-1.5154932
2921.0	-1.5154845
2920.0	-1.5151093
2919.0	-1.5146242
2918.1	-1.5145359
2917.1	-1.5148487
2916.1	-1.5152261
2915.2	-1.5155964
2914.2	-1.5159531
2913.3	-1.5160233
2912.3	-1.5157884
2911.3	-1.5155965
2910.4	-1.5154654
2909.4	-1.5151305
2908.4	-1.5149019
2907.5	-1.5153069
2906.5	-1.5157418
2905.5	-1.5154599
2904.6	-1.5150115
2903.6	-1.5148375
2902.6	-1.5146644
2901.7	-1.5145077
2900.7	-1.5144907
2899.8	-1.5145420
2898.8	-1.5146406
2897.8	-1.5148090
2896.9	-1.5150113
2895.9	-1.5151037
2894.9	-1.5150213
2894.0	-1.5150257
2893.0	-1.5151566
2892.0	-1.5149637
2891.1	-1.5144219
2890.1	-1.5140687
2889.1	-1.5141392
2888.2	-1.5142899
2887.2	-1.5143663
2886.3	-1.5145645
2885.3	-1.5145379
2884.3	-1.5141716
2883.4	-1.5141286
2882.4	-1.5144295
2881.4	-1.5145767
2880.5	-1.5146115
2879.5	-1.5147588
2878.5	-1.5148712
2877.6	-1.5148665
2876.6	-1.5149797
2875.6	-1.5151600
2874.7	-1.5151418
2873.7	-1.5150001
2872.8	-1.5150213
2871.8	-1.5150377
2870.8	-1.5146481
2869.9	-1.5142628
2868.9	-1.5142293
2867.9	-1.5139476
2867.0	-1.5134259
2866.0	-1.5134386
2865.0	-1.5139452
2864.1	-1.5142972
2863.1	-1.5142152
2862.1	-1.5139049
2861.2	-1.5136184
2860.2	-1.5131590
2859.3	-1.5125561
2858.3	-1.5123378
2857.3	-1.5123925
2856.4	-1.5121503
2855.4	-1.5113863
2854.4	-1.5103099
2853.5	-1.5097973
2852.5	-1.5103527
2851.5	-1.5111332
2850.6	-1.5115174
2849.6	-1.5118092
2848.6	-1.5119535
2847.7	-1.5115249
2846.7	-1.5106585
2845.7	-1.5102043
2844.8	-1.5105981
2843.8	-1.5110818
2842.9	-1.5109798
2841.9	-1.5105621
2840.9	-1.5104412
2840.0	-1.5106697
2839.0	-1.5105246
2838.0	-1.5099252
2837.1	-1.5096779
2836.1	-1.5099069
2835.1	-1.5100175
2834.2	-1.5097116
2833.2	-1.5092721
2832.2	-1.5090903
2831.3	-1.5093461
2830.3	-1.5101098
2829.4	-1.5109261
2828.4	-1.5112083
2827.4	-1.5112358
2826.5	-1.5112946
2825.5	-1.5111156
2824.5	-1.5109215
2823.6	-1.5112385
2822.6	-1.5117834
2821.6	-1.5117881
2820.7	-1.5111824
2819.7	-1.5105563
2818.7	-1.5101622
2817.8	-1.5098864
2816.8	-1.5096070
2815.9	-1.5090832
2814.9	-1.5085862
2813.9	-1.5087732
2813.0	-1.5092303
2812.0	-1.5092690
2811.0	-1.5092976
2810.1	-1.5095192
2809.1	-1.5094649
2808.1	-1.5091664
2807.2	-1.5090296
2806.2	-1.5091193
2805.2	-1.5092504
2804.3	-1.5095149
2803.3	-1.5099308
2802.4	-1.5100448
2801.4	-1.5098661
2800.4	-1.5096691
2799.5	-1.5094351
2798.5	-1.5094521
2797.5	-1.5097358
2796.6	-1.5098596
2795.6	-1.5097986
2794.6	-1.5097121
2793.7	-1.5096844
2792.7	-1.5098820
2791.7	-1.5103579
2790.8	-1.5106647
2789.8	-1.5105796
2788.9	-1.5108125
2787.9	-1.5116854
2786.9	-1.5124817
2786.0	-1.5126370
2785.0	-1.5123924
2784.0	-1.5122540
2783.1	-1.5121585
2782.1	-1.5118494
2781.1	-1.5118742
2780.2	-1.5126532
2779.2	-1.5133007
2778.2	-1.5131475
2777.3	-1.5129206
2776.3	-1.5130545
2775.4	-1.5129658
2774.4	-1.5128262
2773.4	-1.5133562
2772.5	-1.5140041
2771.5	-1.5141068
2770.5	-1.5141181
2769.6	-1.5140531
2768.6	-1.5133022
2767.6	-1.5124536
2766.7	-1.5126964
2765.7	-1.5134598
2764.7	-1.5136193
2763.8	-1.5136145
2762.8	-1.5136319
2761.9	-1.5130452
2760.9	-1.5124449
2759.9	-1.5126084
2759.0	-1.5129088
2758.0	-1.5129138
2757.0	-1.5131003
2756.1	-1.5134550
2755.1	-1.5134829
2754.1	-1.5132660
2753.2	-1.5132542
2752.2	-1.5133663
2751.2	-1.5131756
2750.3	-1.5127535
2749.3	-1.5126140
2748.4	-1.5128860
2747.4	-1.5131482
2746.4	-1.5132469
2745.5	-1.5134490
2744.5	-1.5136753
2743.5	-1.5136214
2742.6	-1.5135607
2741.6	-1.5138862
2740.6	-1.5142096
2739.7	-1.5141464
2738.7	-1.5140567
2737.7	-1.5141472
2736.8	-1.5141277
2735.8	-1.5139886
2734.9	-1.5141228
2733.9	-1.5144360
2732.9	-1.5141301
2732.0	-1.5132194
2731.0	-1.5128921
2730.0	-1.5133905
2729.1	-1.5137141
2728.1	-1.5136806
2727.1	-1.5138692
2726.2	-1.5140675
2725.2	-1.5138156
2724.2	-1.5133932
2723.3	-1.5131110
2722.3	-1.5128969
2721.4	-1.5127157
2720.4	-1.5127711
2719.4	-1.5131401
2718.5	-1.5133717
2717.5	-1.5131763
2716.5	-1.5128053
2715.6	-1.5126288
2714.6	-1.5129458
2713.6	-1.5134915
2712.7	-1.5136111
2711.7	-1.5132478
2710.7	-1.5130008
2709.8	-1.5130810
2708.8	-1.5129391
2707.9	-1.5126619
2706.9	-1.5130053
2705.9	-1.5136226
2705.0	-1.5136787
2704.0	-1.5133371
2703.0	-1.5131122
2702.1	-1.5131530
2701.1	-1.5133948
2700.1	-1.5136944
2699.2	-1.5140585
2698.2	-1.5144993
2697.2	-1.5147110
2696.3	-1.5145912
2695.3	-1.5144910
2694.3	-1.5145850
2693.4	-1.5147063
2692.4	-1.5145228
2691.5	-1.5139018
2690.5	-1.5133793
2689.5	-1.5134548
2688.6	-1.5138561
2687.6	-1.5140797
2686.6	-1.5139674
2685.7	-1.5138795
2684.7	-1.5142411
2683.7	-1.5147750
2682.8	-1.5150295
2681.8	-1.5150418
2680.8	-1.5149846
2679.9	-1.5149513
2678.9	-1.5148194
2678.0	-1.5144776
2677.0	-1.5142541
2676.0	-1.5145063
2675.1	-1.5150573
2674.1	-1.5151784
2673.1	-1.5146606
2672.2	-1.5143005
2671.2	-1.5143294
2670.2	-1.5143142
2669.3	-1.5144212
2668.3	-1.5147798
2667.3	-1.5149969
2666.4	-1.5149130
2665.4	-1.5148046
2664.5	-1.5150685
2663.5	-1.5156552
2662.5	-1.5159924
2661.6	-1.5158330
2660.6	-1.5155286
2659.6	-1.5153090
2658.7	-1.5150727
2657.7	-1.5149580
2656.7	-1.5150727
2655.8	-1.5150527
2654.8	-1.5147285
2653.8	-1.5144284
2652.9	-1.5144404
2651.9	-1.5145453
2651.0	-1.5144840
2650.0	-1.5144938
2649.0	-1.5145783
2648.1	-1.5145235
2647.1	-1.5147446
2646.1	-1.5154634
2645.2	-1.5158435
2644.2	-1.5154337
2643.2	-1.5149770
2642.3	-1.5148180
2641.3	-1.5146898
2640.3	-1.5148768
2639.4	-1.5154444
2638.4	-1.5155759
2637.5	-1.5149813
2636.5	-1.5143919
2635.5	-1.5143919
2634.6	-1.5148356
2633.6	-1.5151651
2632.6	-1.5150920
2631.7	-1.5148127
2630.7	-1.5146620
2629.7	-1.5148335
2628.8	-1.5151436
2627.8	-1.5152950
2626.8	-1.5151796
2625.9	-1.5149575
2624.9	-1.5149580
2624.0	-1.5150955
2623.0	-1.5151790
2622.0	-1.5155108
2621.1	-1.5160319
2620.1	-1.5160658
2619.1	-1.5156499
2618.2	-1.5154631
2617.2	-1.5155406
2616.2	-1.5155516
2615.3	-1.5155348
2614.3	-1.5156380
2613.3	-1.5157046
2612.4	-1.5156622
2611.4	-1.5158144
2610.5	-1.5159070
2609.5	-1.5154103
2608.5	-1.5149444
2607.6	-1.5153236
2606.6	-1.5159862
2605.6	-1.5160993
2604.7	-1.5159569
2603.7	-1.5159854
2602.7	-1.5159535
2601.8	-1.5157620
2600.8	-1.5155326
2599.8	-1.5152853
2598.9	-1.5152495
2597.9	-1.5156415
2597.0	-1.5161743
2596.0	-1.5163864
2595.0	-1.5161954
2594.1	-1.5159370
2593.1	-1.5158262
2592.1	-1.5156409
2591.2	-1.5153520
2590.2	-1.5153495
2589.2	-1.5156169
2588.3	-1.5157872
2587.3	-1.5159088
2586.3	-1.5162101
2585.4	-1.5166105
2584.4	-1.5167503
2583.5	-1.5163833
2582.5	-1.5157188
2581.5	-1.5151993
2580.6	-1.5151532
2579.6	-1.5155157
2578.6	-1.5158106
2577.7	-1.5156503
2576.7	-1.5153189
2575.7	-1.5153706
2574.8	-1.5156465
2573.8	-1.5157592
2572.8	-1.5155804
2571.9	-1.5150582
2570.9	-1.5147636
2570.0	-1.5153223
2569.0	-1.5162131
2568.0	-1.5163797
2567.1	-1.5158684
2566.1	-1.5158235
2565.1	-1.5165882
2564.2	-1.5170895
2563.2	-1.5165114
2562.2	-1.5155803
2561.3	-1.5152732
2560.3	-1.5154483
2559.3	-1.5156156
2558.4	-1.5156149
2557.4	-1.5155339
2556.4	-1.5154663
2555.5	-1.5154289
2554.5	-1.5155052
2553.6	-1.5155511
2552.6	-1.5153834
2551.6	-1.5152888
2550.7	-1.5155172
2549.7	-1.5157748
2548.7	-1.5158861
2547.8	-1.5161206
2546.8	-1.5163267
2545.8	-1.5161337
2544.9	-1.5159127
2543.9	-1.5159540
2542.9	-1.5157145
2542.0	-1.5151141
2541.0	-1.5149344
2540.1	-1.5151826
2539.1	-1.5149831
2538.1	-1.5146116
2537.2	-1.5151782
2536.2	-1.5160027
2535.2	-1.5157161
2534.3	-1.5151050
2533.3	-1.5153636
2532.3	-1.5159330
2531.4	-1.5161183
2530.4	-1.5162138
2529.4	-1.5163246
2528.5	-1.5160242
2527.5	-1.5155156
2526.6	-1.5155226
2525.6	-1.5158349
2524.6	-1.5157026
2523.7	-1.5154305
2522.7	-1.5155895
2521.7	-1.5157435
2520.8	-1.5155823
2519.8	-1.5154680
2518.8	-1.5154589
2517.9	-1.5154607
2516.9	-1.5156615
2515.9	-1.5159465
2515.0	-1.5157868
2514.0	-1.5152352
2513.1	-1.5149946
2512.1	-1.5152097
2511.1	-1.5155023
2510.2	-1.5157266
2509.2	-1.5158683
2508.2	-1.5159429
2507.3	-1.5159481
2506.3	-1.5159384
2505.3	-1.5160867
2504.4	-1.5162396
2503.4	-1.5160927
2502.4	-1.5158441
2501.5	-1.5158309
2500.5	-1.5159193
2499.6	-1.5159737
2498.6	-1.5161110
2497.6	-1.5161521
2496.7	-1.5158749
2495.7	-1.5155891
2494.7	-1.5156630
2493.8	-1.5159266
2492.8	-1.5159390
2491.8	-1.5156221
2490.9	-1.5153117
2489.9	-1.5151963
2488.9	-1.5153449
2488.0	-1.5157876
2487.0	-1.5159560
2486.1	-1.5154991
2485.1	-1.5152510
2484.1	-1.5158067
2483.2	-1.5164361
2482.2	-1.5163685
2481.2	-1.5159045
2480.3	-1.5156773
2479.3	-1.5157677
2478.3	-1.5159184
2477.4	-1.5160416
2476.4	-1.5159909
2475.4	-1.5156333
2474.5	-1.5155622
2473.5	-1.5160186
2472.6	-1.5161874
2471.6	-1.5159142
2470.6	-1.5157974
2469.7	-1.5158017
2468.7	-1.5155104
2467.7	-1.5150870
2466.8	-1.5150328
2465.8	-1.5152737
2464.8	-1.5154560
2463.9	-1.5156882
2462.9	-1.5160282
2461.9	-1.5159776
2461.0	-1.5155135
2460.0	-1.5154533
2459.1	-1.5158334
2458.1	-1.5160167
2457.1	-1.5161146
2456.2	-1.5162340
2455.2	-1.5160512
2454.2	-1.5156752
2453.3	-1.5155009
2452.3	-1.5156496
2451.3	-1.5157429
2450.4	-1.5154213
2449.4	-1.5151349
2448.4	-1.5153868
2447.5	-1.5157715
2446.5	-1.5158509
2445.6	-1.5158089
2444.6	-1.5157613
2443.6	-1.5155783
2442.7	-1.5152032
2441.7	-1.5149399
2440.7	-1.5151786
2439.8	-1.5156758
2438.8	-1.5160565
2437.8	-1.5162026
2436.9	-1.5160453
2435.9	-1.5159410
2434.9	-1.5161657
2434.0	-1.5163118
2433.0	-1.5161070
2432.1	-1.5158899
2431.1	-1.5157766
2430.1	-1.5154245
2429.2	-1.5150446
2428.2	-1.5151930
2427.2	-1.5154893
2426.3	-1.5153047
2425.3	-1.5150837
2424.3	-1.5152309
2423.4	-1.5152098
2422.4	-1.5148929
2421.4	-1.5148144
2420.5	-1.5150965
2419.5	-1.5154248
2418.5	-1.5155561
2417.6	-1.5156841
2416.6	-1.5159645
2415.7	-1.5159918
2414.7	-1.5158199
2413.7	-1.5159464
2412.8	-1.5160637
2411.8	-1.5158176
2410.8	-1.5156651
2409.9	-1.5158279
2408.9	-1.5159444
2407.9	-1.5159026
2407.0	-1.5159247
2406.0	-1.5161176
2405.0	-1.5162497
2404.1	-1.5162126
2403.1	-1.5164425
2402.2	-1.5168509
2401.2	-1.5168530
2400.2	-1.5166506
2399.3	-1.5164921
2398.3	-1.5161813
2397.3	-1.5160304
2396.4	-1.5163428
2395.4	-1.5164931
2394.4	-1.5160313
2393.5	-1.5156357
2392.5	-1.5158682
2391.5	-1.5162143
2390.6	-1.5160824
2389.6	-1.5157223
2388.7	-1.5155898
2387.7	-1.5155703
2386.7	-1.5154217
2385.8	-1.5155424
2384.8	-1.5162669
2383.8	-1.5168844
2382.9	-1.5168464
2381.9	-1.5164922
2380.9	-1.5159774
2380.0	-1.5154943
2379.0	-1.5154518
2378.0	-1.5154988
2377.1	-1.5151128
2376.1	-1.5146750
2375.2	-1.5146915
2374.2	-1.5148222
2373.2	-1.5145259
2372.3	-1.5140600
2371.3	-1.5138626
2370.3	-1.5138129
2369.4	-1.5138260
2368.4	-1.5139830
2367.4	-1.5143085
2366.5	-1.5146077
2365.5	-1.5143361
2364.5	-1.5136412
2363.6	-1.5134640
2362.6	-1.5138655
2361.7	-1.5139830
2360.7	-1.5136895
2359.7	-1.5135956
2358.8	-1.5137823
2357.8	-1.5139744
2356.8	-1.5141908
2355.9	-1.5144379
2354.9	-1.5146291
2353.9	-1.5148417
2353.0	-1.5149705
2352.0	-1.5149354
2351.0	-1.5152709
2350.1	-1.5160730
2349.1	-1.5163800
2348.2	-1.5156355
2347.2	-1.5146263
2346.2	-1.5143639
2345.3	-1.5146447
2344.3	-1.5148467
2343.3	-1.5149748
2342.4	-1.5147878
2341.4	-1.5142599
2340.4	-1.5143086
2339.5	-1.5149957
2338.5	-1.5152388
2337.5	-1.5149307
2336.6	-1.5150971
2335.6	-1.5157771
2334.7	-1.5159354
2333.7	-1.5156734
2332.7	-1.5157472
2331.8	-1.5158852
2330.8	-1.5157422
2329.8	-1.5156749
2328.9	-1.5158322
2327.9	-1.5158011
2326.9	-1.5154259
2326.0	-1.5151426
2325.0	-1.5153037
2324.0	-1.5156577
2323.1	-1.5158863
2322.1	-1.5161052
2321.2	-1.5162816
2320.2	-1.5163629
2319.2	-1.5165288
2318.3	-1.5166991
2317.3	-1.5166056
2316.3	-1.5161877
2315.4	-1.5160009
2314.4	-1.5164007
2313.4	-1.5166906
2312.5	-1.5165888
2311.5	-1.5169303
2310.5	-1.5178736
2309.6	-1.5183169
2308.6	-1.5179662
2307.7	-1.5176598
2306.7	-1.5175246
2305.7	-1.5174394
2304.8	-1.5177934
2303.8	-1.5182613
2302.8	-1.5181441
2301.9	-1.5177827
2300.9	-1.5178982
2299.9	-1.5184776
2299.0	-1.5188845
2298.0	-1.5186704
2297.0	-1.5182288
2296.1	-1.5181956
2295.1	-1.5185001
2294.2	-1.5186782
2293.2	-1.5186540
2292.2	-1.5185869
2291.3	-1.5185511
2290.3	-1.5186503
2289.3	-1.5189064
2288.4	-1.5192409
2287.4	-1.5195649
2286.4	-1.5197011
2285.5	-1.5195239
2284.5	-1.5193577
2283.5	-1.5197057
2282.6	-1.5202359
2281.6	-1.5201085
2280.7	-1.5195152
2279.7	-1.5193423
2278.7	-1.5194407
2277.8	-1.5192436
2276.8	-1.5191221
2275.8	-1.5193762
2274.9	-1.5195676
2273.9	-1.5195483
2272.9	-1.5196968
2272.0	-1.5199594
2271.0	-1.5200082
2270.0	-1.5200348
2269.1	-1.5203053
2268.1	-1.5205845
2267.1	-1.5203028
2266.2	-1.5196599
2265.2	-1.5195152
2264.3	-1.5196705
2263.3	-1.5196333
2262.3	-1.5198286
2261.4	-1.5202372
2260.4	-1.5201027
2259.4	-1.5194646
2258.5	-1.5189904
2257.5	-1.5188633
2256.5	-1.5189528
2255.6	-1.5192817
2254.6	-1.5200822
2253.6	-1.5209669
2252.7	-1.5209647
2251.7	-1.5202501
2250.8	-1.5198792
2249.8	-1.5200061
2248.8	-1.5198636
2247.9	-1.5193634
2246.9	-1.5193083
2245.9	-1.5196170
2245.0	-1.5195297
2244.0	-1.5192831
2243.0	-1.5193762
2242.1	-1.5194849
2241.1	-1.5193585
2240.1	-1.5191842
2239.2	-1.5191826
2238.2	-1.5195588
2237.3	-1.5200366
2236.3	-1.5200868
2235.3	-1.5197701
2234.4	-1.5195918
2233.4	-1.5196633
2232.4	-1.5195153
2231.5	-1.5192552
2230.5	-1.5195163
2229.5	-1.5198296
2228.6	-1.5194476
2227.6	-1.5190146
2226.6	-1.5191964
2225.7	-1.5196487
2224.7	-1.5200070
2223.8	-1.5201509
2222.8	-1.5201188
2221.8	-1.5201331
2220.9	-1.5204449
2219.9	-1.5211177
2218.9	-1.5216153
2218.0	-1.5212886
2217.0	-1.5204942
2216.0	-1.5202014
2215.1	-1.5203388
2214.1	-1.5201224
2213.1	-1.5197446
2212.2	-1.5197998
2211.2	-1.5200481
2210.3	-1.5200005
2209.3	-1.5199332
2208.3	-1.5202333
2207.4	-1.5204709
2206.4	-1.5205524
2205.4	-1.5209202
2204.5	-1.5210725
2203.5	-1.5205265
2202.5	-1.5200231
2201.6	-1.5200161
2200.6	-1.5201628
2199.6	-1.5203855
2198.7	-1.5206974
2197.7	-1.5206456
2196.8	-1.5200186
2195.8	-1.5195308
2194.8	-1.5194938
2193.9	-1.5192349
2192.9	-1.5188740
2191.9	-1.5191869
2191.0	-1.5198463
2190.0	-1.5200124
2189.0	-1.5197918
2188.1	-1.5195719
2187.1	-1.5193552
2186.1	-1.5195017
2185.2	-1.5201589
2184.2	-1.5205164
2183.3	-1.5200690
2182.3	-1.5194557
2181.3	-1.5193092
2180.4	-1.5195403
2179.4	-1.5198733
2178.4	-1.5198734
2177.5	-1.5195010
2176.5	-1.5195289
2175.5	-1.5200330
2174.6	-1.5201246
2173.6	-1.5196910
2172.6	-1.5195328
2171.7	-1.5198821
2170.7	-1.5202819
2169.8	-1.5204866
2168.8	-1.5205052
2167.8	-1.5203195
2166.9	-1.5200058
2165.9	-1.5198464
2164.9	-1.5198330
2164.0	-1.5196491
2163.0	-1.5194869
2162.0	-1.5197440
2161.1	-1.5201762
2160.1	-1.5203325
2159.1	-1.5203595
2158.2	-1.5205922
2157.2	-1.5208112
2156.3	-1.5207433
2155.3	-1.5206765
2154.3	-1.5207754
2153.4	-1.5207934
2152.4	-1.5207555
2151.4	-1.5207592
2150.5	-1.5207613
2149.5	-1.5208095
2148.5	-1.5207613
2147.6	-1.5206012
2146.6	-1.5205837
2145.6	-1.5207007
2144.7	-1.5210263
2143.7	-1.5215657
2142.8	-1.5217291
2141.8	-1.5214987
2140.8	-1.5215483
2139.9	-1.5218294
2138.9	-1.5220109
2137.9	-1.5221026
2137.0	-1.5219916
2136.0	-1.5217580
2135.0	-1.5219336
2134.1	-1.5224771
2133.1	-1.5224769
2132.1	-1.5218477
2131.2	-1.5214972
2130.2	-1.5214952
2129.2	-1.5211974
2128.3	-1.5207042
2127.3	-1.5206656
2126.4	-1.5210263
2125.4	-1.5212905
2124.4	-1.5215188
2123.5	-1.5219440
2122.5	-1.5222354
2121.5	-1.5219834
2120.6	-1.5216080
2119.6	-1.5215715
2118.6	-1.5216334
2117.7	-1.5215995
2116.7	-1.5214107
2115.7	-1.5212166
2114.8	-1.5213882
2113.8	-1.5216345
2112.9	-1.5213664
2111.9	-1.5210280
2110.9	-1.5215487
2110.0	-1.5223918
2109.0	-1.5223306
2108.0	-1.5217869
2107.1	-1.5218582
2106.1	-1.5222985
2105.1	-1.5221401
2104.2	-1.5214418
2103.2	-1.5212232
2102.2	-1.5216727
2101.3	-1.5220071
2100.3	-1.5219493
2099.4	-1.5219377
2098.4	-1.5222306
2097.4	-1.5224537
2096.5	-1.5222820
2095.5	-1.5220100
2094.5	-1.5219417
2093.6	-1.5220593
2092.6	-1.5223100
2091.6	-1.5225680
2090.7	-1.5228225
2089.7	-1.5232403
2088.7	-1.5234441
2087.8	-1.5229945
2086.8	-1.5224621
2085.9	-1.5224615
2084.9	-1.5227023
2083.9	-1.5227240
2083.0	-1.5225803
2082.0	-1.5226171
2081.0	-1.5227988
2080.1	-1.5227430
2079.1	-1.5224915
2078.1	-1.5225704
2077.2	-1.5232686
2076.2	-1.5240647
2075.2	-1.5241168
2074.3	-1.5235502
2073.3	-1.5232468
2072.4	-1.5234169
2071.4	-1.5236207
2070.4	-1.5236772
2069.5	-1.5236748
2068.5	-1.5237224
2067.5	-1.5239533
2066.6	-1.5240680
2065.6	-1.5237749
2064.6	-1.5237756
2063.7	-1.5243789
2062.7	-1.5246836
2061.7	-1.5243582
2060.8	-1.5240886
2059.8	-1.5241735
2058.9	-1.5240823
2057.9	-1.5237530
2056.9	-1.5238221
2056.0	-1.5241464
2055.0	-1.5242642
2054.0	-1.5245206
2053.1	-1.5249215
2052.1	-1.5248195
2051.1	-1.5244534
2050.2	-1.5243950
2049.2	-1.5243005
2048.2	-1.5241150
2047.3	-1.5242672
2046.3	-1.5243948
2045.4	-1.5241065
2044.4	-1.5239201
2043.4	-1.5242770
2042.5	-1.5247717
2041.5	-1.5248579
2040.5	-1.5246955
2039.6	-1.5247629
2038.6	-1.5249149
2037.6	-1.5247793
2036.7	-1.5247332
2035.7	-1.5250213
2034.7	-1.5249228
2033.8	-1.5242723
2032.8	-1.5241052
2031.9	-1.5248030
2030.9	-1.5254284
2029.9	-1.5255582
2029.0	-1.5258225
2028.0	-1.5260986
2027.0	-1.5257443
2026.1	-1.5252335
2025.1	-1.5251125
2024.1	-1.5251226
2023.2	-1.5252165
2022.2	-1.5255170
2021.2	-1.5256972
2020.3	-1.5255021
2019.3	-1.5254630
2018.4	-1.5258998
2017.4	-1.5260128
2016.4	-1.5256858
2015.5	-1.5258707
2014.5	-1.5264386
2013.5	-1.5266162
2012.6	-1.5265073
2011.6	-1.5264899
2010.6	-1.5265167
2009.7	-1.5263935
2008.7	-1.5263706
2007.7	-1.5268327
2006.8	-1.5273181
2005.8	-1.5272340
2004.9	-1.5269364
2003.9	-1.5268301
2002.9	-1.5267198
2002.0	-1.5266391
2001.0	-1.5268550
2000.0	-1.5269892
1999.1	-1.5266308
1998.1	-1.5262290
1997.1	-1.5262341
1996.2	-1.5265658
1995.2	-1.5270350
1994.2	-1.5273939
1993.3	-1.5274937
1992.3	-1.5274400
1991.3	-1.5273930
1990.4	-1.5273719
1989.4	-1.5271883
1988.5	-1.5267427
1987.5	-1.5263511
1986.5	-1.5263890
1985.6	-1.5266190
1984.6	-1.5264636
1983.6	-1.5259656
1982.7	-1.5257773
1981.7	-1.5261368
1980.7	-1.5265987
1979.8	-1.5269529
1978.8	-1.5273130
1977.8	-1.5276214
1976.9	-1.5278950
1975.9	-1.5281006
1975.0	-1.5280137
1974.0	-1.5276670
1973.0	-1.5274547
1972.1	-1.5275792
1971.1	-1.5276018
1970.1	-1.5272961
1969.2	-1.5271901
1968.2	-1.5273782
1967.2	-1.5273896
1966.3	-1.5273931
1965.3	-1.5276370
1964.3	-1.5276361
1963.4	-1.5272400
1962.4	-1.5268902
1961.5	-1.5266787
1960.5	-1.5265099
1959.5	-1.5268915
1958.6	-1.5280187
1957.6	-1.5286167
1956.6	-1.5281081
1955.7	-1.5277319
1954.7	-1.5280972
1953.7	-1.5285585
1952.8	-1.5286720
1951.8	-1.5285956
1950.8	-1.5284317
1949.9	-1.5281178
1948.9	-1.5279233
1948.0	-1.5280545
1947.0	-1.5281470
1946.0	-1.5280013
1945.1	-1.5280062
1944.1	-1.5281976
1943.1	-1.5282909
1942.2	-1.5284772
1941.2	-1.5288328
1940.2	-1.5290365
1939.3	-1.5289364
1938.3	-1.5286602
1937.3	-1.5284244
1936.4	-1.5282484
1935.4	-1.5279706
1934.5	-1.5277190
1933.5	-1.5278722
1932.5	-1.5282855
1931.6	-1.5284485
1930.6	-1.5283232
1929.6	-1.5282049
1928.7	-1.5283184
1927.7	-1.5288006
1926.7	-1.5294554
1925.8	-1.5296822
1924.8	-1.5293429
1923.8	-1.5290914
1922.9	-1.5292192
1921.9	-1.5292510
1921.0	-1.5290036
1920.0	-1.5288750
1919.0	-1.5289556
1918.1	-1.5288864
1917.1	-1.5284680
1916.1	-1.5280347
1915.2	-1.5280396
1914.2	-1.5282733
1913.2	-1.5285536
1912.3	-1.5290643
1911.3	-1.5294021
1910.3	-1.5293541
1909.4	-1.5294800
1908.4	-1.5297643
1907.5	-1.5296724
1906.5	-1.5293350
1905.5	-1.5292006
1904.6	-1.5292237
1903.6	-1.5291513
1902.6	-1.5291070
1901.7	-1.5292802
1900.7	-1.5293999
1899.7	-1.5293000
1898.8	-1.5291245
1897.8	-1.5288373
1896.8	-1.5286136
1895.9	-1.5287517
1894.9	-1.5290740
1894.0	-1.5293208
1893.0	-1.5294042
1892.0	-1.5292448
1891.1	-1.5290303
1890.1	-1.5291221
1889.1	-1.5294797
1888.2	-1.5297296
1887.2	-1.5296565
1886.2	-1.5292933
1885.3	-1.5288962
1884.3	-1.5288152
1883.3	-1.5290453
1882.4	-1.5292153
1881.4	-1.5291727
1880.5	-1.5291419
1879.5	-1.5292647
1878.5	-1.5295601
1877.6	-1.5300505
1876.6	-1.5303576
1875.6	-1.5301392
1874.7	-1.5296881
1873.7	-1.5292847
1872.7	-1.5291309
1871.8	-1.5293559
1870.8	-1.5296593
1869.8	-1.5298284
1868.9	-1.5298308
1867.9	-1.5298073
1867.0	-1.5301178
1866.0	-1.5306666
1865.0	-1.5309432
1864.1	-1.5307471
1863.1	-1.5304488
1862.1	-1.5302753
1861.2	-1.5299742
1860.2	-1.5297118
1859.2	-1.5298064
1858.3	-1.5299708
1857.3	-1.5300318
1856.3	-1.5301660
1855.4	-1.5302727
1854.4	-1.5301276
1853.5	-1.5299335
1852.5	-1.5300857
1851.5	-1.5304757
1850.6	-1.5306706
1849.6	-1.5305034
1848.6	-1.5302079
1847.7	-1.5302907
1846.7	-1.5306380
1845.7	-1.5306766
1844.8	-1.5308404
1843.8	-1.5314229
1842.8	-1.5314256
1841.9	-1.5306404
1840.9	-1.5299528
1839.9	-1.5296186
1839.0	-1.5294769
1838.0	-1.5295650
1837.1	-1.5297424
1836.1	-1.5297002
1835.1	-1.5294834
1834.2	-1.5295136
1833.2	-1.5297934
1832.2	-1.5298548
1831.3	-1.5297899
1830.3	-1.5300626
1829.3	-1.5304086
1828.4	-1.5303971
1827.4	-1.5302453
1826.4	-1.5301665
1825.5	-1.5302968
1824.5	-1.5305740
1823.6	-1.5304316
1822.6	-1.5299642
1821.6	-1.5298078
1820.7	-1.5298935
1819.7	-1.5297698
1818.7	-1.5294029
1817.8	-1.5292530
1816.8	-1.5294774
1815.8	-1.5295700
1814.9	-1.5291619
1813.9	-1.5284801
1812.9	-1.5279294
1812.0	-1.5276116
1811.0	-1.5275153
1810.1	-1.5276713
1809.1	-1.5276380
1808.1	-1.5268459
1807.2	-1.5257622
1806.2	-1.5253001
1805.2	-1.5252982
1804.3	-1.5250545
1803.3	-1.5245906
1802.3	-1.5242293
1801.4	-1.5240246
1800.4	-1.5241718
1799.4	-1.5245132
1798.5	-1.5242670
1797.5	-1.5235897
1796.6	-1.5236341
1795.6	-1.5244776
1794.6	-1.5251570
1793.7	-1.5257452
1792.7	-1.5267820
1791.7	-1.5274976
1790.8	-1.5271950
1789.8	-1.5264156
1788.8	-1.5257120
1787.9	-1.5252140
1786.9	-1.5249282
1785.9	-1.5247720
1785.0	-1.5247974
1784.0	-1.5248605
1783.1	-1.5245504
1782.1	-1.5241235
1781.1	-1.5241094
1780.2	-1.5244051
1779.2	-1.5248622
1778.2	-1.5253727
1777.3	-1.5254359
1776.3	-1.5252154
1775.3	-1.5254841
1774.4	-1.5259018
1773.4	-1.5261348
1772.4	-1.5267756
1771.5	-1.5275500
1770.5	-1.5278217
1769.6	-1.5278240
1768.6	-1.5281624
1767.6	-1.5289010
1766.7	-1.5292699
1765.7	-1.5291755
1764.7	-1.5292442
1763.8	-1.5294131
1762.8	-1.5295455
1761.8	-1.5298997
1760.9	-1.5302887
1759.9	-1.5302641
1758.9	-1.5300096
1758.0	-1.5301661
1757.0	-1.5307584
1756.1	-1.5309010
1755.1	-1.5303415
1754.1	-1.5299600
1753.2	-1.5300524
1752.2	-1.5303808
1751.2	-1.5308400
1750.3	-1.5308771
1749.3	-1.5304552
1748.3	-1.5301564
1747.4	-1.5297140
1746.4	-1.5288630
1745.4	-1.5281043
1744.5	-1.5276594
1743.5	-1.5274154
1742.6	-1.5271685
1741.6	-1.5264453
1740.6	-1.5253960
1739.7	-1.5248263
1738.7	-1.5245736
1737.7	-1.5239531
1736.8	-1.5228983
1735.8	-1.5214531
1734.8	-1.5201923
1733.9	-1.5198350
1732.9	-1.5193378
1731.9	-1.5168415
1731.0	-1.5122886
1730.0	-1.5071194
1729.1	-1.5018792
1728.1	-1.4961743
1727.1	-1.4902270
1726.2	-1.4846958
1725.2	-1.4803983
1724.2	-1.4783162
1723.3	-1.4785000
1722.3	-1.4792110
1721.3	-1.4788914
1720.4	-1.4792837
1719.4	-1.4829081
1718.4	-1.4871401
1717.5	-1.4869089
1716.5	-1.4834155
1715.6	-1.4825935
1714.6	-1.4853158
1713.6	-1.4874295
1712.7	-1.4872351
1711.7	-1.4865805
1710.7	-1.4871505
1709.8	-1.4890690
1708.8	-1.4918783
1707.8	-1.4957812
1706.9	-1.5007552
1705.9	-1.5058308
1704.9	-1.5104241
1704.0	-1.5145810
1703.0	-1.5180278
1702.0	-1.5204657
1701.1	-1.5230323
1700.1	-1.5264726
1699.2	-1.5287753
1698.2	-1.5285585
1697.2	-1.5274037
1696.3	-1.5275298
1695.3	-1.5286775
1694.3	-1.5291110
1693.4	-1.5291482
1692.4	-1.5293679
1691.4	-1.5292253
1690.5	-1.5287642
1689.5	-1.5284439
1688.5	-1.5285475
1687.6	-1.5288367
1686.6	-1.5286149
1685.7	-1.5284084
1684.7	-1.5295503
1683.7	-1.5311854
1682.8	-1.5316818
1681.8	-1.5314778
1680.8	-1.5313604
1679.9	-1.5314856
1678.9	-1.5317292
1677.9	-1.5316124
1677.0	-1.5313585
1676.0	-1.5318702
1675.0	-1.5328151
1674.1	-1.5330691
1673.1	-1.5330100
1672.2	-1.5333439
1671.2	-1.5335972
1670.2	-1.5337709
1669.3	-1.5346025
1668.3	-1.5355028
1667.3	-1.5352141
1666.4	-1.5343561
1665.4	-1.5343330
1664.4	-1.5349709
1663.5	-1.5355445
1662.5	-1.5362462
1661.5	-1.5369396
1660.6	-1.5369179
1659.6	-1.5365231
1658.7	-1.5364957
1657.7	-1.5366709
1656.7	-1.5364708
1655.8	-1.5358201
1654.8	-1.5351837
1653.8	-1.5353987
1652.9	-1.5370722
1651.9	-1.5386335
1650.9	-1.5381926
1650.0	-1.5366268
1649.0	-1.5356410
1648.0	-1.5356940
1647.1	-1.5363523
1646.1	-1.5371515
1645.2	-1.5374963
1644.2	-1.5370122
1643.2	-1.5363622
1642.3	-1.5361322
1641.3	-1.5362434
1640.3	-1.5363978
1639.4	-1.5361860
1638.4	-1.5357269
1637.4	-1.5354780
1636.5	-1.5358479
1635.5	-1.5369723
1634.5	-1.5377522
1633.6	-1.5373409
1632.6	-1.5365447
1631.7	-1.5361528
1630.7	-1.5362133
1629.7	-1.5363189
1628.8	-1.5362277
1627.8	-1.5362617
1626.8	-1.5363990
1625.9	-1.5362114
1624.9	-1.5356364
1623.9	-1.5354400
1623.0	-1.5362892
1622.0	-1.5373373
1621.0	-1.5375050
1620.1	-1.5372332
1619.1	-1.5370878
1618.2	-1.5367215
1617.2	-1.5369560
1616.2	-1.5383177
1615.3	-1.5387294
1614.3	-1.5375879
1613.3	-1.5367329
1612.4	-1.5369297
1611.4	-1.5373387
1610.4	-1.5372672
1609.5	-1.5370830
1608.5	-1.5370450
1607.5	-1.5369914
1606.6	-1.5372910
1605.6	-1.5379252
1604.7	-1.5379993
1603.7	-1.5373943
1602.7	-1.5370984
1601.8	-1.5375662
1600.8	-1.5381826
1599.8	-1.5383564
1598.9	-1.5381273
1597.9	-1.5376039
1596.9	-1.5367224
1596.0	-1.5356765
1595.0	-1.5348811
1594.0	-1.5343566
1593.1	-1.5336548
1592.1	-1.5326734
1591.2	-1.5318873
1590.2	-1.5314071
1589.2	-1.5306393
1588.3	-1.5296017
1587.3	-1.5288453
1586.3	-1.5279458
1585.4	-1.5265614
1584.4	-1.5254123
1583.4	-1.5248476
1582.5	-1.5247035
1581.5	-1.5253175
1580.5	-1.5265057
1579.6	-1.5267309
1578.6	-1.5252969
1577.7	-1.5239435
1576.7	-1.5247402
1575.7	-1.5267401
1574.8	-1.5274274
1573.8	-1.5270128
1572.8	-1.5267146
1571.9	-1.5263621
1570.9	-1.5262139
1569.9	-1.5271193
1569.0	-1.5286609
1568.0	-1.5298767
1567.0	-1.5309975
1566.1	-1.5324244
1565.1	-1.5335865
1564.1	-1.5341142
1563.2	-1.5345322
1562.2	-1.5348735
1561.3	-1.5347463
1560.3	-1.5349635
1559.3	-1.5362998
1558.4	-1.5378861
1557.4	-1.5384618
1556.4	-1.5379449
1555.5	-1.5375319
1554.5	-1.5379549
1553.5	-1.5384293
1552.6	-1.5383105
1551.6	-1.5381223
1550.6	-1.5382724
1549.7	-1.5386140
1548.7	-1.5389432
1547.8	-1.5388458
1546.8	-1.5382676
1545.8	-1.5380148
1544.9	-1.5382941
1543.9	-1.5381050
1542.9	-1.5374836
1542.0	-1.5373076
1541.0	-1.5371931
1540.0	-1.5374376
1539.1	-1.5388653
1538.1	-1.5398803
1537.1	-1.5393264
1536.2	-1.5385463
1535.2	-1.5385901
1534.3	-1.5392687
1533.3	-1.5397518
1532.3	-1.5395383
1531.4	-1.5393527
1530.4	-1.5393301
1529.4	-1.5387793
1528.5	-1.5381649
1527.5	-1.5379680
1526.5	-1.5378938
1525.6	-1.5379782
1524.6	-1.5380872
1523.6	-1.5375730
1522.7	-1.5365350
1521.7	-1.5363356
1520.8	-1.5374203
1519.8	-1.5381633
1518.8	-1.5376523
1517.9	-1.5370048
1516.9	-1.5370537
1515.9	-1.5371561
1515.0	-1.5369921
1514.0	-1.5369380
1513.0	-1.5368407
1512.1	-1.5365113
1511.1	-1.5362768
1510.1	-1.5363930
1509.2	-1.5363610
1508.2	-1.5358311
1507.3	-1.5359619
1506.3	-1.5372845
1505.3	-1.5381033
1504.4	-1.5376527
1503.4	-1.5371695
1502.4	-1.5371237
1501.5	-1.5369277
1500.5	-1.5366603
1499.5	-1.5367489
1498.6	-1.5367552
1497.6	-1.5362091
1496.6	-1.5359247
1495.7	-1.5363170
1494.7	-1.5362276
1493.8	-1.5353751
1492.8	-1.5344691
1491.8	-1.5334622
1490.9	-1.5325820
1489.9	-1.5322311
1488.9	-1.5316736
1488.0	-1.5304804
1487.0	-1.5292917
1486.0	-1.5284488
1485.1	-1.5277910
1484.1	-1.5272700
1483.1	-1.5269406
1482.2	-1.5264301
1481.2	-1.5247830
1480.3	-1.5221030
1479.3	-1.5202246
1478.3	-1.5201622
1477.4	-1.5212286
1476.4	-1.5229526
1475.4	-1.5248356
1474.5	-1.5251431
1473.5	-1.5235187
1472.5	-1.5229434
1471.6	-1.5247211
1470.6	-1.5261811
1469.6	-1.5261985
1468.7	-1.5260626
1467.7	-1.5261474
1466.8	-1.5262971
1465.8	-1.5270164
1464.8	-1.5285574
1463.9	-1.5302068
1462.9	-1.5314808
1461.9	-1.5326905
1461.0	-1.5339935
1460.0	-1.5350780
1459.0	-1.5353745
1458.1	-1.5353943
1457.1	-1.5365543
1456.1	-1.5381434
1455.2	-1.5384760
1454.2	-1.5381197
1453.3	-1.5381117
1452.3	-1.5383489
1451.3	-1.5386093
1450.4	-1.5387172
1449.4	-1.5385731
1448.4	-1.5385723
1447.5	-1.5388943
1446.5	-1.5388416
1445.5	-1.5379677
1444.6	-1.5372144
1443.6	-1.5375600
1442.6	-1.5382710
1441.7	-1.5382051
1440.7	-1.5377744
1439.8	-1.5377218
1438.8	-1.5377055
1437.8	-1.5377034
1436.9	-1.5384080
1435.9	-1.5393218
1434.9	-1.5392684
1434.0	-1.5385050
1433.0	-1.5378320
1432.0	-1.5373170
1431.1	-1.5368596
1430.1	-1.5365293
1429.1	-1.5366220
1428.2	-1.5371895
1427.2	-1.5375355
1426.3	-1.5373358
1425.3	-1.5371541
1424.3	-1.5372252
1423.4	-1.5372235
1422.4	-1.5371709
1421.4	-1.5372155
1420.5	-1.5373800
1419.5	-1.5379373
1418.5	-1.5386722
1417.6	-1.5388381
1416.6	-1.5382347
1415.6	-1.5374860
1414.7	-1.5373125
1413.7	-1.5373660
1412.7	-1.5372733
1411.8	-1.5376072
1410.8	-1.5380784
1409.9	-1.5379013
1408.9	-1.5374318
1407.9	-1.5370177
1407.0	-1.5365008
1406.0	-1.5362396
1405.0	-1.5366875
1404.1	-1.5374291
1403.1	-1.5375648
1402.1	-1.5370327
1401.2	-1.5368925
1400.2	-1.5374895
1399.2	-1.5377089
1398.3	-1.5371658
1397.3	-1.5366881
1396.4	-1.5364701
1395.4	-1.5363423
1394.4	-1.5364864
1393.5	-1.5366683
1392.5	-1.5364892
1391.5	-1.5362978
1390.6	-1.5366952
1389.6	-1.5374537
1388.6	-1.5380329
1387.7	-1.5385286
1386.7	-1.5389891
1385.7	-1.5392183
1384.8	-1.5395885
1383.8	-1.5404636
1382.9	-1.5411549
1381.9	-1.5408050
1380.9	-1.5397229
1380.0	-1.5387853
1379.0	-1.5381707
1378.0	-1.5375408
1377.1	-1.5371714
1376.1	-1.5374627
1375.1	-1.5378079
1374.2	-1.5377531
1373.2	-1.5378102
1372.2	-1.5380725
1371.3	-1.5379680
1370.3	-1.5377370
1369.4	-1.5382680
1368.4	-1.5391899
1367.4	-1.5392791
1366.5	-1.5385910
1365.5	-1.5380440
1364.5	-1.5379692
1363.6	-1.5380958
1362.6	-1.5379984
1361.6	-1.5378609
1360.7	-1.5380976
1359.7	-1.5384327
1358.7	-1.5389209
1357.8	-1.5396661
1356.8	-1.5399095
1355.9	-1.5397924
1354.9	-1.5400398
1353.9	-1.5400972
1353.0	-1.5397772
1352.0	-1.5399282
1351.0	-1.5403239
1350.1	-1.5402138
1349.1	-1.5400910
1348.1	-1.5406023
1347.2	-1.5409920
1346.2	-1.5404426
1345.2	-1.5397863
1344.3	-1.5398378
1343.3	-1.5400296
1342.4	-1.5399995
1341.4	-1.5401249
1340.4	-1.5404522
1339.5	-1.5408119
1338.5	-1.5412533
1337.5	-1.5415219
1336.6	-1.5413431
1335.6	-1.5409387
1334.6	-1.5405790
1333.7	-1.5404811
1332.7	-1.5405178
1331.7	-1.5402981
1330.8	-1.5401893
1329.8	-1.5405245
1328.9	-1.5405477
1327.9	-1.5401624
1326.9	-1.5403651
1326.0	-1.5410504
1325.0	-1.5413725
1324.0	-1.5413405
1323.1	-1.5411553
1322.1	-1.5407321
1321.1	-1.5403787
1320.2	-1.5405149
1319.2	-1.5407929
1318.2	-1.5405915
1317.3	-1.5400342
1316.3	-1.5397862
1315.4	-1.5400654
1314.4	-1.5404172
1313.4	-1.5404948
1312.5	-1.5403214
1311.5	-1.5399516
1310.5	-1.5394491
1309.6	-1.5391347
1308.6	-1.5391828
1307.6	-1.5391812
1306.7	-1.5389969
1305.7	-1.5389211
1304.7	-1.5388935
1303.8	-1.5387390
1302.8	-1.5385537
1301.9	-1.5382768
1300.9	-1.5375081
1299.9	-1.5365672
1299.0	-1.5362456
1298.0	-1.5363026
1297.0	-1.5360806
1296.1	-1.5355389
1295.1	-1.5351787
1294.1	-1.5353223
1293.2	-1.5355377
1292.2	-1.5357584
1291.2	-1.5362403
1290.3	-1.5364170
1289.3	-1.5362208
1288.4	-1.5364740
1287.4	-1.5370214
1286.4	-1.5370061
1285.5	-1.5365158
1284.5	-1.5360733
1283.5	-1.5356237
1282.6	-1.5352664
1281.6	-1.5352812
1280.6	-1.5353987
1279.7	-1.5354670
1278.7	-1.5357637
1277.7	-1.5364718
1276.8	-1.5371994
1275.8	-1.5372115
1274.8	-1.5368928
1273.9	-1.5370950
1272.9	-1.5373244
1272.0	-1.5371451
1271.0	-1.5372331
1270.0	-1.5376983
1269.1	-1.5378959
1268.1	-1.5378629
1267.1	-1.5378959
1266.2	-1.5376225
1265.2	-1.5369976
1264.2	-1.5366756
1263.3	-1.5369805
1262.3	-1.5376165
1261.3	-1.5379624
1260.4	-1.5379391
1259.4	-1.5381308
1258.5	-1.5384256
1257.5	-1.5385718
1256.5	-1.5392747
1255.6	-1.5404967
1254.6	-1.5409089
1253.6	-1.5401467
1252.7	-1.5393463
1251.7	-1.5389403
1250.7	-1.5379394
1249.8	-1.5363261
1248.8	-1.5354733
1247.8	-1.5356240
1246.9	-1.5359614
1245.9	-1.5362502
1245.0	-1.5364681
1244.0	-1.5361742
1243.0	-1.5353534
1242.1	-1.5349978
1241.1	-1.5354894
1240.1	-1.5357798
1239.2	-1.5354760
1238.2	-1.5354202
1237.2	-1.5358284
1236.3	-1.5361290
1235.3	-1.5362381
1234.3	-1.5364463
1233.4	-1.5367409
1232.4	-1.5370580
1231.5	-1.5374261
1230.5	-1.5375177
1229.5	-1.5371507
1228.6	-1.5371392
1227.6	-1.5380802
1226.6	-1.5390947
1225.7	-1.5393491
1224.7	-1.5394403
1223.7	-1.5400180
1222.8	-1.5405250
1221.8	-1.5404564
1220.8	-1.5402917
1219.9	-1.5403692
1218.9	-1.5405858
1218.0	-1.5407518
1217.0	-1.5403945
1216.0	-1.5396143
1215.1	-1.5392913
1214.1	-1.5397953
1213.1	-1.5407475
1212.2	-1.5415519
1211.2	-1.5419226
1210.2	-1.5419704
1209.3	-1.5414208
1208.3	-1.5401068
1207.3	-1.5392061
1206.4	-1.5396221
1205.4	-1.5401596
1204.5	-1.5397584
1203.5	-1.5392953
1202.5	-1.5396025
1201.6	-1.5401927
1200.6	-1.5403639
1199.6	-1.5400561
1198.7	-1.5394523
1197.7	-1.5389382
1196.7	-1.5393069
1195.8	-1.5403068
1194.8	-1.5406858
1193.8	-1.5407330
1192.9	-1.5413525
1191.9	-1.5415851
1191.0	-1.5407379
1190.0	-1.5401902
1189.0	-1.5405145
1188.1	-1.5403906
1187.1	-1.5396816
1186.1	-1.5395538
1185.2	-1.5394728
1184.2	-1.5384254
1183.2	-1.5373207
1182.3	-1.5371133
1181.3	-1.5376137
1180.3	-1.5384920
1179.4	-1.5394005
1178.4	-1.5399663
1177.5	-1.5399896
1176.5	-1.5396899
1175.5	-1.5394325
1174.6	-1.5390239
1173.6	-1.5382445
1172.6	-1.5375065
1171.7	-1.5373397
1170.7	-1.5374514
1169.7	-1.5370791
1168.8	-1.5364906
1167.8	-1.5363303
1166.8	-1.5363821
1165.9	-1.5364090
1164.9	-1.5365981
1164.0	-1.5370699
1163.0	-1.5376496
1162.0	-1.5380752
1161.1	-1.5381501
1160.1	-1.5377206
1159.1	-1.5373374
1158.2	-1.5380530
1157.2	-1.5397428
1156.2	-1.5407332
1155.3	-1.5402386
1154.3	-1.5396477
1153.3	-1.5393832
1152.4	-1.5384936
1151.4	-1.5379044
1150.5	-1.5386870
1149.5	-1.5396314
1148.5	-1.5396322
1147.6	-1.5394232
1146.6	-1.5398885
1145.6	-1.5404953
1144.7	-1.5410390
1143.7	-1.5424641
1142.7	-1.5443028
1141.8	-1.5447894
1140.8	-1.5438665
1139.8	-1.5429916
1138.9	-1.5424492
1137.9	-1.5419699
1136.9	-1.5424513
1136.0	-1.5435950
1135.0	-1.5435427
1134.1	-1.5428505
1133.1	-1.5433581
1132.1	-1.5440592
1131.2	-1.5434403
1130.2	-1.5427315
1129.2	-1.5431074
1128.3	-1.5438049
1127.3	-1.5443575
1126.3	-1.5448400
1125.4	-1.5449934
1124.4	-1.5449208
1123.4	-1.5448798
1122.5	-1.5454098
1121.5	-1.5462995
1120.6	-1.5455178
1119.6	-1.5434265
1118.6	-1.5427793
1117.7	-1.5431530
1116.7	-1.5425432
1115.7	-1.5420475
1114.8	-1.5433644
1113.8	-1.5446020
1112.8	-1.5441056
1111.9	-1.5438284
1110.9	-1.5444092
1109.9	-1.5442733
1109.0	-1.5439552
1108.0	-1.5447508
1107.1	-1.5454700
1106.1	-1.5448143
1105.1	-1.5438408
1104.2	-1.5436680
1103.2	-1.5437962
1102.2	-1.5431584
1101.3	-1.5419190
1100.3	-1.5413270
1099.3	-1.5413005
1098.4	-1.5411248
1097.4	-1.5408951
1096.4	-1.5402285
1095.5	-1.5392530
1094.5	-1.5393473
1093.6	-1.5406737
1092.6	-1.5414585
1091.6	-1.5405524
1090.7	-1.5393900
1089.7	-1.5393132
1088.7	-1.5396979
1087.8	-1.5399593
1086.8	-1.5399873
1085.8	-1.5394906
1084.9	-1.5383183
1083.9	-1.5377553
1082.9	-1.5386170
1082.0	-1.5391816
1081.0	-1.5392824
1080.1	-1.5404491
1079.1	-1.5423144
1078.1	-1.5430936
1077.2	-1.5424861
1076.2	-1.5427884
1075.2	-1.5434633
1074.3	-1.5417631
1073.3	-1.5402071
1072.3	-1.5417422
1071.4	-1.5433706
1070.4	-1.5434729
1069.4	-1.5446719
1068.5	-1.5454662
1067.5	-1.5432422
1066.6	-1.5410824
1065.6	-1.5416515
1064.6	-1.5432279
1063.7	-1.5435688
1062.7	-1.5434897
1061.7	-1.5448526
1060.8	-1.5469736
1059.8	-1.5481564
1058.8	-1.5479180
1057.9	-1.5467298
1056.9	-1.5453656
1055.9	-1.5451007
1055.0	-1.5461279
1054.0	-1.5462549
1053.1	-1.5446842
1052.1	-1.5434278
1051.1	-1.5436043
1050.2	-1.5446061
1049.2	-1.5463835
1048.2	-1.5482644
1047.3	-1.5477945
1046.3	-1.5454699
1045.3	-1.5450352
1044.4	-1.5472541
1043.4	-1.5487108
1042.4	-1.5472987
1041.5	-1.5464627
1040.5	-1.5484918
1039.6	-1.5488915
1038.6	-1.5467730
1037.6	-1.5467993
1036.7	-1.5474501
1035.7	-1.5457515
1034.7	-1.5446426
1033.8	-1.5455165
1032.8	-1.5466642
1031.8	-1.5476819
1030.9	-1.5489668
1029.9	-1.5499638
1028.9	-1.5489111
1028.0	-1.5468481
1027.0	-1.5476147
1026.1	-1.5492194
1025.1	-1.5464437
1024.1	-1.5421613
1023.2	-1.5419189
1022.2	-1.5434548
1021.2	-1.5422732
1020.3	-1.5402067
1019.3	-1.5402017
1018.3	-1.5399499
1017.4	-1.5375140
1016.4	-1.5364658
1015.4	-1.5392841
1014.5	-1.5424135
1013.5	-1.5436107
1012.6	-1.5440636
1011.6	-1.5431299
1010.6	-1.5418706
1009.7	-1.5417538
1008.7	-1.5403109
1007.7	-1.5373933
1006.8	-1.5372142
1005.8	-1.5408559
1004.8	-1.5433705
1003.9	-1.5431021
1002.9	-1.5435994
1001.9	-1.5446116
1001.0	-1.5439373
1000.0	-1.5427210
999.1	-1.5448781
998.1	-1.5502533
997.1	-1.5531763
996.2	-1.5536648
995.2	-1.5547624
994.2	-1.5536937
993.3	-1.5494554
992.3	-1.5469033
991.3	-1.5476260
990.4	-1.5473355
989.4	-1.5446720
988.4	-1.5437145
987.5	-1.5451125
986.5	-1.5432433
985.5	-1.5398949
984.6	-1.5432329
983.6	-1.5480690
982.7	-1.5460495
981.7	-1.5439936
980.7	-1.5482427
979.8	-1.5526030
978.8	-1.5528537
977.8	-1.5543149
976.9	-1.5563968
975.9	-1.5536242
974.9	-1.5514650
974.0	-1.5541795
973.0	-1.5530045
972.0	-1.5448287
971.1	-1.5394478
970.1	-1.5423687
969.2	-1.5486678
968.2	-1.5530455
967.2	-1.5581754
966.3	-1.5629815
965.3	-1.5605927
964.3	-1.5587220
963.4	-1.5665447
962.4	-1.5740333
961.4	-1.5714684
960.5	-1.5662339
959.5	-1.5650986
958.5	-1.5618402
957.6	-1.5552326
956.6	-1.5542516
955.7	-1.5576669
954.7	-1.5571308
953.7	-1.5537454
952.8	-1.5495601
951.8	-1.5420491
950.8	-1.5379144
949.9	-1.5470058
948.9	-1.5620388
947.9	-1.5657806
947.0	-1.5617241
946.0	-1.5666091
945.0	-1.5716799
944.1	-1.5596489
943.1	-1.5458721
942.2	-1.5485519
941.2	-1.5575466
940.2	-1.5587978
939.3	-1.5594659
938.3	-1.5660381
937.3	-1.5644770
936.4	-1.5535085
935.4	-1.5497280
934.4	-1.5514340
933.5	-1.5533220
932.5	-1.5588130
931.5	-1.5630463
930.6	-1.5612456
929.6	-1.5596408
928.7	-1.5683045
927.7	-1.5801971
926.7	-1.5792032
925.8	-1.5700431
924.8	-1.5609385
923.8	-1.5488205
922.9	-1.5337929
921.9	-1.5299003
920.9	-1.5495912
920.0	-1.5849215
919.0	-1.6144888
918.0	-1.6140026
917.1	-1.5809466
916.1	-1.5480589
915.2	-1.5522110
914.2	-1.5989450
913.2	-1.6365408
912.3	-1.6248879
911.3	-1.6181760
910.3	-1.6408757
909.4	-1.6255970
908.4	-1.5533715
907.4	-1.4950907
906.5	-1.4765587
905.5	-1.4772195
904.5	-1.4945852
903.6	-1.5285097
902.6	-1.5339713
901.7	-1.4985113
900.7	-1.4971687
899.7	-1.5577990
898.8	-1.6064442
897.8	-1.6084007
896.8	-1.6081016
895.9	-1.5886647
894.9	-1.5269722
893.9	-1.4852233
893.0	-1.5409386
892.0	-1.6514498
891.0	-1.6491477
890.1	-1.6022683
889.1	-1.6316303
888.2	-1.6634862
887.2	-1.6398078
886.2	-1.6596774
885.3	-1.7238415
884.3	-1.6819865
883.3	-1.6107256
882.4	-1.6522682
881.4	-1.6976629
880.4	-1.5739412
879.5	-1.4938751
878.5	-1.5480390
877.5	-1.4708039
876.6	-1.2930396
875.6	-1.2969525
874.7	-1.5489565
873.7	-1.8816538
872.7	-1.8441232
871.8	-1.8517596
870.8	-2.0092492
869.8	-1.9116774
868.9	-1.7241112
867.9	-1.7068530
866.9	-1.7979772
866.0	-1.8126949
865.0	-1.8020275
864.0	-1.9145540
863.1	-1.9189514
862.1	-1.7531456
861.2	-1.7581962
860.2	-2.0581536
859.2	-2.0267317
858.3	-1.5053350
857.3	-1.2792226
856.3	-1.2973676
855.4	-1.4674898
854.4	-1.6063576
853.4	-1.5182797
852.5	-1.2871003
851.5	-1.0882158
850.5	-1.0799311
849.6	-2.2048070
848.6	6.0000000
847.6	6.0000000
846.7	-1.2412556
845.7	-1.3745703
844.8	-1.4246151
843.8	-1.3646983
842.8	-1.9986353
841.9	6.0000000
840.9	-2.4147322
839.9	-2.1961226
839.0	6.0000000
838.0	6.0000000
837.0	6.0000000
836.1	6.0000000
835.1	6.0000000
834.1	6.0000000
833.2	-1.1369742
832.2	-1.0110166
831.3	-1.2239304
830.3	-1.2502325
829.3	-0.9794562
828.4	-0.8342145
827.4	-0.8381088
826.4	-0.8751249
825.5	-0.9282207
824.5	-0.9061214
823.5	-1.0539625
822.6	-1.7945794
821.6	6.0000000
820.6	6.0000000
819.7	6.0000000
818.7	-2.4248216
817.8	-1.7762127
816.8	-2.2537184
815.8	-1.4803149
814.9	-0.9050703
813.9	-0.9267953
812.9	-1.1602901
812.0	-1.3413991
811.0	6.0000000
810.0	6.0000000
809.1	6.0000000
808.1	-2.2341273
807.1	6.0000000
806.2	-1.8016543
805.2	-1.0455939
804.3	-0.8088471
803.3	-0.7308697
802.3	-0.6544170
801.4	-0.6431496
800.4	-0.8219221
799.4	-1.0823650
798.5	-1.0145608
797.5	-0.8133144
796.5	-0.8546737
795.6	-1.1026888
794.6	-1.4696381
793.6	6.0000000
792.7	6.0000000
791.7	6.0000000
790.8	-1.5893759
789.8	-1.6366966
788.8	-2.2227888
787.9	-1.5910398
786.9	-1.1417674
785.9	-1.0038099
785.0	-0.9622454
784.0	-0.8802205
783.0	-0.8715852
782.1	-0.9904194
781.1	-1.0625627
780.1	-1.0081513
779.2	-1.0739663
778.2	-1.3513901
777.3	-1.6498044
776.3	-2.0896785
775.3	6.0000000
774.4	6.0000000
773.4	6.0000000
772.4	-1.1468935
771.5	-0.8062820
770.5	-0.8617991
769.5	-0.8887106
768.6	-0.8944973
767.6	-1.1686262
766.6	-1.4067274
765.7	-1.1132922
764.7	-1.2587813
763.8	6.0000000
762.8	6.0000000
761.8	-1.1857570
760.9	-1.3240542
759.9	-2.4170325
758.9	-1.6563549
758.0	-1.2054571
757.0	-0.9092761
756.0	-0.7006913
755.1	-0.7676008
754.1	-1.0931314
753.1	-1.0748097
752.2	-0.9370931
751.2	-1.1688274
750.3	-2.1127224
749.3	6.0000000
748.3	6.0000000
747.4	6.0000000
746.4	-1.7291174
745.4	-0.9836040
744.5	-0.9705471
743.5	-1.4200504
742.5	-1.7463565
741.6	-1.0240794
740.6	-0.7745213
739.6	-0.7616302
738.7	-0.8105230
737.7	-0.8833424
736.8	-1.0670894
735.8	-1.3530595
734.8	-1.3681384
733.9	-1.2826185
732.9	-1.9314654
731.9	6.0000000
731.0	6.0000000
730.0	6.0000000
729.0	6.0000000
728.1	6.0000000
727.1	6.0000000
726.1	6.0000000
725.2	6.0000000
724.2	6.0000000
723.3	6.0000000
722.3	-1.8324986
721.3	6.0000000
720.4	6.0000000
719.4	-1.8728619
718.4	-1.9572803
717.5	-1.5637125
716.5	-1.0069627
715.5	-0.8448000
714.6	-0.9838276
713.6	-1.3659611
712.6	-1.6188481
711.7	-1.2640536
710.7	-1.0242012
709.7	-1.0668538
708.8	-1.3537307
707.8	-1.7902203
706.9	-2.1662018
705.9	-2.1662018
704.9	-2.4332454
704.0	6.0000000
703.0	6.0000000
702.0	6.0000000
701.1	-1.9983549
700.1	-1.2282633
699.1	-1.2821027
