3997.91406	-0.00052
3995.98550	-0.00056
3994.05693	-0.00056
3992.12837	-0.00051
3990.19980	-0.00047
3988.27124	-0.00048
3986.34268	-0.00050
3984.41411	-0.00051
3982.48555	-0.00050
3980.55698	-0.00051
3978.62842	-0.00052
3976.69985	-0.00051
3974.77129	-0.00048
3972.84272	-0.00047
3970.91416	-0.00050
3968.98560	-0.00053
3967.05703	-0.00052
3965.12847	-0.00051
3963.19990	-0.00049
3961.27134	-0.00048
3959.34277	-0.00048
3957.41421	-0.00051
3955.48564	-0.00050
3953.55708	-0.00049
3951.62852	-0.00050
3949.69995	-0.00050
3947.77139	-0.00050
3945.84282	-0.00051
3943.91426	-0.00052
3941.98569	-0.00052
3940.05713	-0.00052
3938.12856	-0.00052
3936.20000	-0.00051
3934.27144	-0.00049
3932.34287	-0.00049
3930.41431	-0.00049
3928.48574	-0.00052
3926.55718	-0.00053
3924.62861	-0.00053
3922.70005	-0.00052
3920.77148	-0.00052
3918.84292	-0.00050
3916.91436	-0.00049
3914.98579	-0.00051
3913.05723	-0.00054
3911.12866	-0.00054
3909.20010	-0.00053
3907.27153	-0.00049
3905.34297	-0.00043
3903.41440	-0.00040
3901.48584	-0.00042
3899.55728	-0.00047
3897.62871	-0.00052
3895.70015	-0.00053
3893.77158	-0.00048
3891.84302	-0.00045
3889.91445	-0.00047
3887.98589	-0.00047
3886.05733	-0.00048
3884.12876	-0.00051
3882.20020	-0.00050
3880.27163	-0.00049
3878.34307	-0.00051
3876.41450	-0.00054
3874.48594	-0.00052
3872.55737	-0.00046
3870.62881	-0.00042
3868.70025	-0.00043
3866.77168	-0.00047
3864.84312	-0.00048
3862.91455	-0.00049
3860.98599	-0.00051
3859.05742	-0.00049
3857.12886	-0.00037
3855.20029	-0.00020
3853.27173	-0.00019
3851.34317	-0.00038
3849.41460	-0.00055
3847.48604	-0.00059
3845.55747	-0.00056
3843.62891	-0.00053
3841.70034	-0.00045
3839.77178	-0.00037
3837.84321	-0.00037
3835.91465	-0.00046
3833.98609	-0.00054
3832.05752	-0.00056
3830.12896	-0.00057
3828.20039	-0.00060
3826.27183	-0.00061
3824.34326	-0.00056
3822.41470	-0.00049
3820.48613	-0.00049
3818.55757	-0.00049
3816.62901	-0.00048
3814.70044	-0.00052
3812.77188	-0.00060
3810.84331	-0.00060
3808.91475	-0.00054
3806.98618	-0.00050
3805.05762	-0.00050
3803.12905	-0.00046
3801.20049	-0.00045
3799.27193	-0.00053
3797.34336	-0.00060
3795.41480	-0.00064
3793.48623	-0.00067
3791.55767	-0.00066
3789.62910	-0.00066
3787.70054	-0.00068
3785.77197	-0.00070
3783.84341	-0.00070
3781.91485	-0.00067
3779.98628	-0.00065
3778.05772	-0.00067
3776.12915	-0.00070
3774.20059	-0.00069
3772.27202	-0.00065
3770.34346	-0.00062
3768.41489	-0.00063
3766.48633	-0.00066
3764.55777	-0.00068
3762.62920	-0.00068
3760.70064	-0.00065
3758.77207	-0.00063
3756.84351	-0.00064
3754.91494	-0.00060
3752.98638	-0.00047
3751.05781	-0.00038
3749.12925	-0.00042
3747.20069	-0.00044
3745.27212	-0.00040
3743.34356	-0.00044
3741.41499	-0.00057
3739.48643	-0.00063
3737.55786	-0.00058
3735.62930	-0.00053
3733.70074	-0.00054
3731.77217	-0.00061
3729.84361	-0.00067
3727.91504	-0.00069
3725.98648	-0.00069
3724.05791	-0.00070
3722.12935	-0.00070
3720.20078	-0.00070
3718.27222	-0.00073
3716.34366	-0.00072
3714.41509	-0.00066
3712.48653	-0.00059
3710.55796	-0.00060
3708.62940	-0.00066
3706.70083	-0.00072
3704.77227	-0.00075
3702.84370	-0.00077
3700.91514	-0.00079
3698.98658	-0.00080
3697.05801	-0.00081
3695.12945	-0.00081
3693.20088	-0.00077
3691.27232	-0.00068
3689.34375	-0.00061
3687.41519	-0.00066
3685.48662	-0.00075
3683.55806	-0.00079
3681.62950	-0.00078
3679.70093	-0.00073
3677.77237	-0.00062
3675.84380	-0.00055
3673.91524	-0.00058
3671.98667	-0.00059
3670.05811	-0.00061
3668.12954	-0.00071
3666.20098	-0.00081
3664.27242	-0.00085
3662.34385	-0.00085
3660.41529	-0.00083
3658.48672	-0.00079
3656.55816	-0.00076
3654.62959	-0.00076
3652.70103	-0.00072
3650.77246	-0.00065
3648.84390	-0.00064
3646.91534	-0.00072
3644.98677	-0.00079
3643.05821	-0.00082
3641.12964	-0.00082
3639.20108	-0.00084
3637.27251	-0.00087
3635.34395	-0.00088
3633.41538	-0.00086
3631.48682	-0.00077
3629.55826	-0.00068
3627.62969	-0.00072
3625.70113	-0.00083
3623.77256	-0.00089
3621.84400	-0.00085
3619.91543	-0.00079
3617.98687	-0.00080
3616.05830	-0.00084
3614.12974	-0.00084
3612.20118	-0.00084
3610.27261	-0.00086
3608.34405	-0.00088
3606.41548	-0.00091
3604.48692	-0.00094
3602.55835	-0.00095
3600.62979	-0.00094
3598.70123	-0.00091
3596.77266	-0.00089
3594.84410	-0.00089
3592.91553	-0.00090
3590.98697	-0.00089
3589.05840	-0.00087
3587.12984	-0.00088
3585.20127	-0.00091
3583.27271	-0.00093
3581.34415	-0.00094
3579.41558	-0.00097
3577.48702	-0.00100
3575.55845	-0.00099
3573.62989	-0.00097
3571.70132	-0.00093
3569.77276	-0.00091
3567.84419	-0.00092
3565.91563	-0.00096
3563.98707	-0.00099
3562.05850	-0.00098
3560.12994	-0.00098
3558.20137	-0.00101
3556.27281	-0.00104
3554.34424	-0.00104
3552.41568	-0.00103
3550.48711	-0.00103
3548.55855	-0.00103
3546.62999	-0.00102
3544.70142	-0.00102
3542.77286	-0.00102
3540.84429	-0.00103
3538.91573	-0.00104
3536.98716	-0.00106
3535.05860	-0.00108
3533.13003	-0.00109
3531.20147	-0.00107
3529.27291	-0.00105
3527.34434	-0.00103
3525.41578	-0.00101
3523.48721	-0.00102
3521.55865	-0.00105
3519.63008	-0.00109
3517.70152	-0.00112
3515.77295	-0.00112
3513.84439	-0.00109
3511.91583	-0.00107
3509.98726	-0.00109
3508.05870	-0.00113
3506.13013	-0.00115
3504.20157	-0.00114
3502.27300	-0.00114
3500.34444	-0.00115
3498.41587	-0.00115
3496.48731	-0.00114
3494.55875	-0.00113
3492.63018	-0.00115
3490.70162	-0.00117
3488.77305	-0.00118
3486.84449	-0.00117
3484.91592	-0.00116
3482.98736	-0.00115
3481.05879	-0.00115
3479.13023	-0.00116
3477.20167	-0.00120
3475.27310	-0.00123
3473.34454	-0.00123
3471.41597	-0.00122
3469.48741	-0.00121
3467.55884	-0.00122
3465.63028	-0.00124
3463.70171	-0.00125
3461.77315	-0.00126
3459.84459	-0.00126
3457.91602	-0.00127
3455.98746	-0.00128
3454.05889	-0.00127
3452.13033	-0.00125
3450.20176	-0.00122
3448.27320	-0.00122
3446.34464	-0.00125
3444.41607	-0.00128
3442.48751	-0.00129
3440.55894	-0.00131
3438.63038	-0.00131
3436.70181	-0.00131
3434.77325	-0.00131
3432.84468	-0.00132
3430.91612	-0.00135
3428.98756	-0.00138
3427.05899	-0.00140
3425.13043	-0.00141
3423.20186	-0.00141
3421.27330	-0.00141
3419.34473	-0.00140
3417.41617	-0.00136
3415.48760	-0.00134
3413.55904	-0.00134
3411.63048	-0.00134
3409.70191	-0.00134
3407.77335	-0.00133
3405.84478	-0.00133
3403.91622	-0.00134
3401.98765	-0.00137
3400.05909	-0.00140
3398.13052	-0.00139
3396.20196	-0.00137
3394.27340	-0.00135
3392.34483	-0.00134
3390.41627	-0.00134
3388.48770	-0.00133
3386.55914	-0.00131
3384.63057	-0.00131
3382.70201	-0.00135
3380.77344	-0.00137
3378.84488	-0.00137
3376.91632	-0.00136
3374.98775	-0.00137
3373.05919	-0.00139
3371.13062	-0.00140
3369.20206	-0.00142
3367.27349	-0.00142
3365.34493	-0.00142
3363.41636	-0.00142
3361.48780	-0.00142
3359.55924	-0.00140
3357.63067	-0.00138
3355.70211	-0.00138
3353.77354	-0.00141
3351.84498	-0.00143
3349.91641	-0.00144
3347.98785	-0.00144
3346.05928	-0.00145
3344.13072	-0.00145
3342.20216	-0.00143
3340.27359	-0.00140
3338.34503	-0.00140
3336.41646	-0.00142
3334.48790	-0.00144
3332.55933	-0.00145
3330.63077	-0.00144
3328.70220	-0.00143
3326.77364	-0.00143
3324.84508	-0.00144
3322.91651	-0.00146
3320.98795	-0.00147
3319.05938	-0.00145
3317.13082	-0.00144
3315.20225	-0.00146
3313.27369	-0.00147
3311.34513	-0.00146
3309.41656	-0.00145
3307.48800	-0.00145
3305.55943	-0.00147
3303.63087	-0.00149
3301.70230	-0.00149
3299.77374	-0.00146
3297.84517	-0.00144
3295.91661	-0.00144
3293.98805	-0.00146
3292.05948	-0.00148
3290.13092	-0.00149
3288.20235	-0.00151
3286.27379	-0.00152
3284.34522	-0.00153
3282.41666	-0.00154
3280.48809	-0.00154
3278.55953	-0.00153
3276.63097	-0.00151
3274.70240	-0.00150
3272.77384	-0.00152
3270.84527	-0.00154
3268.91671	-0.00155
3266.98814	-0.00155
3265.05958	-0.00156
3263.13101	-0.00158
3261.20245	-0.00161
3259.27389	-0.00161
3257.34532	-0.00159
3255.41676	-0.00158
3253.48819	-0.00159
3251.55963	-0.00161
3249.63106	-0.00160
3247.70250	-0.00159
3245.77393	-0.00159
3243.84537	-0.00160
3241.91681	-0.00161
3239.98824	-0.00162
3238.05968	-0.00163
3236.13111	-0.00165
3234.20255	-0.00167
3232.27398	-0.00167
3230.34542	-0.00166
3228.41685	-0.00166
3226.48829	-0.00167
3224.55973	-0.00168
3222.63116	-0.00168
3220.70260	-0.00169
3218.77403	-0.00170
3216.84547	-0.00170
3214.91690	-0.00170
3212.98834	-0.00170
3211.05977	-0.00172
3209.13121	-0.00175
3207.20265	-0.00178
3205.27408	-0.00179
3203.34552	-0.00179
3201.41695	-0.00180
3199.48839	-0.00180
3197.55982	-0.00182
3195.63126	-0.00184
3193.70269	-0.00185
3191.77413	-0.00184
3189.84557	-0.00183
3187.91700	-0.00183
3185.98844	-0.00185
3184.05987	-0.00189
3182.13131	-0.00191
3180.20274	-0.00192
3178.27418	-0.00192
3176.34562	-0.00193
3174.41705	-0.00194
3172.48849	-0.00195
3170.55992	-0.00193
3168.63136	-0.00192
3166.70279	-0.00191
3164.77423	-0.00194
3162.84566	-0.00197
3160.91710	-0.00200
3158.98854	-0.00201
3157.05997	-0.00200
3155.13141	-0.00200
3153.20284	-0.00202
3151.27428	-0.00205
3149.34571	-0.00207
3147.41715	-0.00208
3145.48858	-0.00208
3143.56002	-0.00208
3141.63146	-0.00208
3139.70289	-0.00208
3137.77433	-0.00210
3135.84576	-0.00212
3133.91720	-0.00213
3131.98863	-0.00212
3130.06007	-0.00214
3128.13150	-0.00218
3126.20294	-0.00221
3124.27438	-0.00222
3122.34581	-0.00222
3120.41725	-0.00223
3118.48868	-0.00223
3116.56012	-0.00223
3114.63155	-0.00224
3112.70299	-0.00227
3110.77442	-0.00229
3108.84586	-0.00228
3106.91730	-0.00227
3104.98873	-0.00228
3103.06017	-0.00231
3101.13160	-0.00235
3099.20304	-0.00237
3097.27447	-0.00238
3095.34591	-0.00238
3093.41734	-0.00240
3091.48878	-0.00242
3089.56022	-0.00243
3087.63165	-0.00242
3085.70309	-0.00242
3083.77452	-0.00243
3081.84596	-0.00243
3079.91739	-0.00242
3077.98883	-0.00242
3076.06026	-0.00243
3074.13170	-0.00242
3072.20314	-0.00242
3070.27457	-0.00242
3068.34601	-0.00243
3066.41744	-0.00242
3064.48888	-0.00242
3062.56031	-0.00242
3060.63175	-0.00243
3058.70318	-0.00243
3056.77462	-0.00245
3054.84606	-0.00248
3052.91749	-0.00251
3050.98893	-0.00255
3049.06036	-0.00259
3047.13180	-0.00262
3045.20323	-0.00266
3043.27467	-0.00271
3041.34610	-0.00275
3039.41754	-0.00279
3037.48898	-0.00284
3035.56041	-0.00289
3033.63185	-0.00291
3031.70328	-0.00294
3029.77472	-0.00298
3027.84615	-0.00298
3025.91759	-0.00296
3023.98903	-0.00292
3022.06046	-0.00289
3020.13190	-0.00290
3018.20333	-0.00291
3016.27477	-0.00289
3014.34620	-0.00287
3012.41764	-0.00287
3010.48907	-0.00288
3008.56051	-0.00290
3006.63195	-0.00293
3004.70338	-0.00297
3002.77482	-0.00300
3000.84625	-0.00304
2998.91769	-0.00307
2996.98912	-0.00311
2995.06056	-0.00313
2993.13199	-0.00312
2991.20343	-0.00311
2989.27487	-0.00311
2987.34630	-0.00312
2985.41774	-0.00313
2983.48917	-0.00314
2981.56061	-0.00318
2979.63204	-0.00321
2977.70348	-0.00324
2975.77491	-0.00327
2973.84635	-0.00328
2971.91779	-0.00329
2969.98922	-0.00328
2968.06066	-0.00326
2966.13209	-0.00322
2964.20353	-0.00320
2962.27496	-0.00320
2960.34640	-0.00321
2958.41783	-0.00320
2956.48927	-0.00319
2954.56071	-0.00319
2952.63214	-0.00322
2950.70358	-0.00325
2948.77501	-0.00329
2946.84645	-0.00335
2944.91788	-0.00343
2942.98932	-0.00350
2941.06075	-0.00354
2939.13219	-0.00356
2937.20363	-0.00358
2935.27506	-0.00360
2933.34650	-0.00364
2931.41793	-0.00367
2929.48937	-0.00369
2927.56080	-0.00371
2925.63224	-0.00373
2923.70367	-0.00375
2921.77511	-0.00375
2919.84655	-0.00374
2917.91798	-0.00372
2915.98942	-0.00369
2914.06085	-0.00363
2912.13229	-0.00357
2910.20372	-0.00352
2908.27516	-0.00348
2906.34659	-0.00345
2904.41803	-0.00343
2902.48947	-0.00340
2900.56090	-0.00336
2898.63234	-0.00332
2896.70377	-0.00327
2894.77521	-0.00323
2892.84664	-0.00319
2890.91808	-0.00315
2888.98952	-0.00313
2887.06095	-0.00310
2885.13239	-0.00306
2883.20382	-0.00304
2881.27526	-0.00304
2879.34669	-0.00305
2877.41813	-0.00303
2875.48956	-0.00302
2873.56100	-0.00301
2871.63244	-0.00301
2869.70387	-0.00302
2867.77531	-0.00302
2865.84674	-0.00302
2863.91818	-0.00302
2861.98961	-0.00302
2860.06105	-0.00301
2858.13248	-0.00299
2856.20392	-0.00295
2854.27536	-0.00293
2852.34679	-0.00292
2850.41823	-0.00290
2848.48966	-0.00286
2846.56110	-0.00284
2844.63253	-0.00281
2842.70397	-0.00279
2840.77540	-0.00276
2838.84684	-0.00273
2836.91828	-0.00271
2834.98971	-0.00272
2833.06115	-0.00273
2831.13258	-0.00275
2829.20402	-0.00277
2827.27545	-0.00280
2825.34689	-0.00284
2823.41832	-0.00289
2821.48976	-0.00293
2819.56120	-0.00296
2817.63263	-0.00297
2815.70407	-0.00299
2813.77550	-0.00298
2811.84694	-0.00297
2809.91837	-0.00296
2807.98981	-0.00295
2806.06124	-0.00295
2804.13268	-0.00296
2802.20412	-0.00295
2800.27555	-0.00294
2798.34699	-0.00294
2796.41842	-0.00294
2794.48986	-0.00293
2792.56129	-0.00293
2790.63273	-0.00293
2788.70416	-0.00291
2786.77560	-0.00289
2784.84704	-0.00288
2782.91847	-0.00288
2780.98991	-0.00287
2779.06134	-0.00285
2777.13278	-0.00284
2775.20421	-0.00282
2773.27565	-0.00280
2771.34708	-0.00280
2769.41852	-0.00279
2767.48996	-0.00280
2765.56139	-0.00281
2763.63283	-0.00284
2761.70426	-0.00288
2759.77570	-0.00292
2757.84713	-0.00296
2755.91857	-0.00301
2753.99001	-0.00308
2752.06144	-0.00313
2750.13288	-0.00314
2748.20431	-0.00313
2746.27575	-0.00314
2744.34718	-0.00316
2742.41862	-0.00315
2740.49005	-0.00314
2738.56149	-0.00312
2736.63293	-0.00309
2734.70436	-0.00307
2732.77580	-0.00306
2730.84723	-0.00306
2728.91867	-0.00305
2726.99010	-0.00304
2725.06154	-0.00304
2723.13297	-0.00305
2721.20441	-0.00308
2719.27585	-0.00312
2717.34728	-0.00317
2715.41872	-0.00323
2713.49015	-0.00329
2711.56159	-0.00334
2709.63302	-0.00336
2707.70446	-0.00336
2705.77589	-0.00335
2703.84733	-0.00334
2701.91877	-0.00334
2699.99020	-0.00337
2698.06164	-0.00346
2696.13307	-0.00357
2694.20451	-0.00367
2692.27594	-0.00373
2690.34738	-0.00374
2688.41881	-0.00372
2686.49025	-0.00366
2684.56169	-0.00360
2682.63312	-0.00354
2680.70456	-0.00349
2678.77599	-0.00346
2676.84743	-0.00344
2674.91886	-0.00342
2672.99030	-0.00338
2671.06173	-0.00333
2669.13317	-0.00327
2667.20461	-0.00321
2665.27604	-0.00317
2663.34748	-0.00312
2661.41891	-0.00308
2659.49035	-0.00308
2657.56178	-0.00310
2655.63322	-0.00313
2653.70465	-0.00318
2651.77609	-0.00324
2649.84753	-0.00332
2647.91896	-0.00345
2645.99040	-0.00363
2644.06183	-0.00381
2642.13327	-0.00392
2640.20470	-0.00392
2638.27614	-0.00382
2636.34757	-0.00367
2634.41901	-0.00353
2632.49045	-0.00340
2630.56188	-0.00329
2628.63332	-0.00320
2626.70475	-0.00312
2624.77619	-0.00305
2622.84762	-0.00299
2620.91906	-0.00294
2618.99049	-0.00291
2617.06193	-0.00287
2615.13337	-0.00283
2613.20480	-0.00281
2611.27624	-0.00278
2609.34767	-0.00277
2607.41911	-0.00276
2605.49054	-0.00276
2603.56198	-0.00275
2601.63342	-0.00274
2599.70485	-0.00275
2597.77629	-0.00277
2595.84772	-0.00278
2593.91916	-0.00279
2591.99059	-0.00282
2590.06203	-0.00285
2588.13346	-0.00292
2586.20490	-0.00305
2584.27634	-0.00322
2582.34777	-0.00336
2580.41921	-0.00341
2578.49064	-0.00337
2576.56208	-0.00326
2574.63351	-0.00312
2572.70495	-0.00301
2570.77638	-0.00294
2568.84782	-0.00288
2566.91926	-0.00282
2564.99069	-0.00275
2563.06213	-0.00269
2561.13356	-0.00268
2559.20500	-0.00268
2557.27643	-0.00265
2555.34787	-0.00263
2553.41930	-0.00261
2551.49074	-0.00261
2549.56218	-0.00260
2547.63361	-0.00258
2545.70505	-0.00257
2543.77648	-0.00256
2541.84792	-0.00253
2539.91935	-0.00252
2537.99079	-0.00252
2536.06222	-0.00251
2534.13366	-0.00248
2532.20510	-0.00248
2530.27653	-0.00248
2528.34797	-0.00247
2526.41940	-0.00245
2524.49084	-0.00244
2522.56227	-0.00246
2520.63371	-0.00248
2518.70514	-0.00248
2516.77658	-0.00245
2514.84802	-0.00244
2512.91945	-0.00244
2510.99089	-0.00244
2509.06232	-0.00244
2507.13376	-0.00244
2505.20519	-0.00244
2503.27663	-0.00243
2501.34806	-0.00244
2499.41950	-0.00245
2497.49094	-0.00245
2495.56237	-0.00243
2493.63381	-0.00242
2491.70524	-0.00241
2489.77668	-0.00242
2487.84811	-0.00242
2485.91955	-0.00242
2483.99098	-0.00242
2482.06242	-0.00242
2480.13386	-0.00244
2478.20529	-0.00245
2476.27673	-0.00245
2474.34816	-0.00244
2472.41960	-0.00243
2470.49103	-0.00244
2468.56247	-0.00246
2466.63391	-0.00247
2464.70534	-0.00246
2462.77678	-0.00245
2460.84821	-0.00245
2458.91965	-0.00246
2456.99108	-0.00247
2455.06252	-0.00246
2453.13395	-0.00246
2451.20539	-0.00245
2449.27683	-0.00245
2447.34826	-0.00245
2445.41970	-0.00244
2443.49113	-0.00242
2441.56257	-0.00241
2439.63400	-0.00241
2437.70544	-0.00243
2435.77687	-0.00245
2433.84831	-0.00244
2431.91975	-0.00243
2429.99118	-0.00243
2428.06262	-0.00243
2426.13405	-0.00243
2424.20549	-0.00243
2422.27692	-0.00243
2420.34836	-0.00242
2418.41979	-0.00243
2416.49123	-0.00244
2414.56267	-0.00244
2412.63410	-0.00243
2410.70554	-0.00241
2408.77697	-0.00240
2406.84841	-0.00238
2404.91984	-0.00238
2402.99128	-0.00238
2401.06271	-0.00239
2399.13415	-0.00240
2397.20559	-0.00242
2395.27702	-0.00243
2393.34846	-0.00242
2391.41989	-0.00242
2389.49133	-0.00241
2387.56276	-0.00240
2385.63420	-0.00239
2383.70563	-0.00240
2381.77707	-0.00241
2379.84851	-0.00243
2377.91994	-0.00244
2375.99138	-0.00245
2374.06281	-0.00247
2372.13425	-0.00251
2370.20568	-0.00254
2368.27712	-0.00255
2366.34855	-0.00257
2364.41999	-0.00260
2362.49143	-0.00262
2360.56286	-0.00261
2358.63430	-0.00260
2356.70573	-0.00259
2354.77717	-0.00255
2352.84860	-0.00250
2350.92004	-0.00246
2348.99147	-0.00245
2347.06291	-0.00246
2345.13435	-0.00249
2343.20578	-0.00252
2341.27722	-0.00253
2339.34865	-0.00254
2337.42009	-0.00255
2335.49152	-0.00256
2333.56296	-0.00256
2331.63440	-0.00255
2329.70583	-0.00253
2327.77727	-0.00251
2325.84870	-0.00250
2323.92014	-0.00249
2321.99157	-0.00248
2320.06301	-0.00248
2318.13444	-0.00248
2316.20588	-0.00248
2314.27732	-0.00247
2312.34875	-0.00246
2310.42019	-0.00247
2308.49162	-0.00247
2306.56306	-0.00246
2304.63449	-0.00245
2302.70593	-0.00245
2300.77736	-0.00244
2298.84880	-0.00243
2296.92024	-0.00242
2294.99167	-0.00242
2293.06311	-0.00243
2291.13454	-0.00244
2289.20598	-0.00244
2287.27741	-0.00243
2285.34885	-0.00242
2283.42028	-0.00243
2281.49172	-0.00245
2279.56316	-0.00244
2277.63459	-0.00242
2275.70603	-0.00242
2273.77746	-0.00242
2271.84890	-0.00243
2269.92033	-0.00245
2267.99177	-0.00246
2266.06320	-0.00246
2264.13464	-0.00247
2262.20608	-0.00249
2260.27751	-0.00251
2258.34895	-0.00252
2256.42038	-0.00251
2254.49182	-0.00249
2252.56325	-0.00247
2250.63469	-0.00245
2248.70612	-0.00243
2246.77756	-0.00242
2244.84900	-0.00242
2242.92043	-0.00242
2240.99187	-0.00243
2239.06330	-0.00243
2237.13474	-0.00243
2235.20617	-0.00242
2233.27761	-0.00242
2231.34904	-0.00243
2229.42048	-0.00243
2227.49192	-0.00242
2225.56335	-0.00242
2223.63479	-0.00243
2221.70622	-0.00243
2219.77766	-0.00242
2217.84909	-0.00243
2215.92053	-0.00245
2213.99196	-0.00247
2212.06340	-0.00247
2210.13484	-0.00245
2208.20627	-0.00243
2206.27771	-0.00243
2204.34914	-0.00244
2202.42058	-0.00244
2200.49201	-0.00245
2198.56345	-0.00245
2196.63488	-0.00245
2194.70632	-0.00245
2192.77776	-0.00246
2190.84919	-0.00247
2188.92063	-0.00248
2186.99206	-0.00249
2185.06350	-0.00249
2183.13493	-0.00250
2181.20637	-0.00249
2179.27781	-0.00247
2177.34924	-0.00246
2175.42068	-0.00247
2173.49211	-0.00247
2171.56355	-0.00247
2169.63498	-0.00246
2167.70642	-0.00245
2165.77785	-0.00244
2163.84929	-0.00246
2161.92073	-0.00247
2159.99216	-0.00249
2158.06360	-0.00249
2156.13503	-0.00248
2154.20647	-0.00248
2152.27790	-0.00249
2150.34934	-0.00251
2148.42077	-0.00251
2146.49221	-0.00249
2144.56365	-0.00249
2142.63508	-0.00251
2140.70652	-0.00252
2138.77795	-0.00252
2136.84939	-0.00251
2134.92082	-0.00249
2132.99226	-0.00248
2131.06369	-0.00247
2129.13513	-0.00248
2127.20657	-0.00249
2125.27800	-0.00250
2123.34944	-0.00251
2121.42087	-0.00250
2119.49231	-0.00250
2117.56374	-0.00251
2115.63518	-0.00251
2113.70661	-0.00251
2111.77805	-0.00251
2109.84949	-0.00250
2107.92092	-0.00249
2105.99236	-0.00250
2104.06379	-0.00250
2102.13523	-0.00251
2100.20666	-0.00252
2098.27810	-0.00252
2096.34953	-0.00251
2094.42097	-0.00251
2092.49241	-0.00251
2090.56384	-0.00251
2088.63528	-0.00252
2086.70671	-0.00253
2084.77815	-0.00253
2082.84958	-0.00252
2080.92102	-0.00252
2078.99245	-0.00253
2077.06389	-0.00254
2075.13533	-0.00254
2073.20676	-0.00253
2071.27820	-0.00253
2069.34963	-0.00253
2067.42107	-0.00253
2065.49250	-0.00253
2063.56394	-0.00254
2061.63537	-0.00255
2059.70681	-0.00254
2057.77825	-0.00253
2055.84968	-0.00253
2053.92112	-0.00254
2051.99255	-0.00255
2050.06399	-0.00255
2048.13542	-0.00255
2046.20686	-0.00257
2044.27830	-0.00258
2042.34973	-0.00257
2040.42117	-0.00256
2038.49260	-0.00256
2036.56404	-0.00257
2034.63547	-0.00258
2032.70691	-0.00257
2030.77834	-0.00255
2028.84978	-0.00253
2026.92122	-0.00253
2024.99265	-0.00254
2023.06409	-0.00257
2021.13552	-0.00259
2019.20696	-0.00259
2017.27839	-0.00257
2015.34983	-0.00256
2013.42126	-0.00258
2011.49270	-0.00261
2009.56414	-0.00261
2007.63557	-0.00260
2005.70701	-0.00260
2003.77844	-0.00260
2001.84988	-0.00261
1999.92131	-0.00262
1997.99275	-0.00261
1996.06418	-0.00261
1994.13562	-0.00261
1992.20706	-0.00260
1990.27849	-0.00261
1988.34993	-0.00261
1986.42136	-0.00262
1984.49280	-0.00262
1982.56423	-0.00262
1980.63567	-0.00261
1978.70710	-0.00261
1976.77854	-0.00262
1974.84998	-0.00263
1972.92141	-0.00263
1970.99285	-0.00262
1969.06428	-0.00261
1967.13572	-0.00262
1965.20715	-0.00263
1963.27859	-0.00264
1961.35002	-0.00263
1959.42146	-0.00264
1957.49290	-0.00264
1955.56433	-0.00265
1953.63577	-0.00264
1951.70720	-0.00263
1949.77864	-0.00262
1947.85007	-0.00262
1945.92151	-0.00261
1943.99294	-0.00260
1942.06438	-0.00261
1940.13582	-0.00262
1938.20725	-0.00263
1936.27869	-0.00263
1934.35012	-0.00261
1932.42156	-0.00261
1930.49299	-0.00263
1928.56443	-0.00265
1926.63586	-0.00265
1924.70730	-0.00264
1922.77874	-0.00263
1920.85017	-0.00263
1918.92161	-0.00262
1916.99304	-0.00263
1915.06448	-0.00265
1913.13591	-0.00265
1911.20735	-0.00264
1909.27878	-0.00263
1907.35022	-0.00262
1905.42166	-0.00263
1903.49309	-0.00264
1901.56453	-0.00264
1899.63596	-0.00265
1897.70740	-0.00267
1895.77883	-0.00268
1893.85027	-0.00268
1891.92171	-0.00268
1889.99314	-0.00267
1888.06458	-0.00268
1886.13601	-0.00268
1884.20745	-0.00268
1882.27888	-0.00269
1880.35032	-0.00270
1878.42175	-0.00271
1876.49319	-0.00271
1874.56463	-0.00271
1872.63606	-0.00271
1870.70750	-0.00268
1868.77893	-0.00267
1866.85037	-0.00270
1864.92180	-0.00275
1862.99324	-0.00278
1861.06467	-0.00279
1859.13611	-0.00280
1857.20755	-0.00281
1855.27898	-0.00282
1853.35042	-0.00284
1851.42185	-0.00285
1849.49329	-0.00286
1847.56472	-0.00284
1845.63616	-0.00280
1843.70759	-0.00281
1841.77903	-0.00289
1839.85047	-0.00297
1837.92190	-0.00301
1835.99334	-0.00303
1834.06477	-0.00304
1832.13621	-0.00303
1830.20764	-0.00302
1828.27908	-0.00303
1826.35051	-0.00303
1824.42195	-0.00303
1822.49339	-0.00302
1820.56482	-0.00301
1818.63626	-0.00298
1816.70769	-0.00296
1814.77913	-0.00294
1812.85056	-0.00293
1810.92200	-0.00292
1808.99343	-0.00294
1807.06487	-0.00298
1805.13631	-0.00304
1803.20774	-0.00313
1801.27918	-0.00330
1799.35061	-0.00354
1797.42205	-0.00372
1795.49348	-0.00370
1793.56492	-0.00351
1791.63635	-0.00332
1789.70779	-0.00321
1787.77923	-0.00314
1785.85066	-0.00308
1783.92210	-0.00304
1781.99353	-0.00302
1780.06497	-0.00303
1778.13640	-0.00305
1776.20784	-0.00303
1774.27927	-0.00297
1772.35071	-0.00293
1770.42215	-0.00296
1768.49358	-0.00300
1766.56502	-0.00304
1764.63645	-0.00309
1762.70789	-0.00315
1760.77932	-0.00327
1758.85076	-0.00349
1756.92220	-0.00379
1754.99363	-0.00407
1753.06507	-0.00413
1751.13650	-0.00402
1749.20794	-0.00395
1747.27937	-0.00399
1745.35081	-0.00411
1743.42224	-0.00431
1741.49368	-0.00465
1739.56512	-0.00522
1737.63655	-0.00603
1735.70799	-0.00693
1733.77942	-0.00789
1731.85086	-0.00884
1729.92229	-0.00959
1727.99373	-0.01015
1726.06516	-0.01070
1724.13660	-0.01138
1722.20804	-0.01225
1720.27947	-0.01330
1718.35091	-0.01480
1716.42234	-0.01722
1714.49378	-0.02014
1712.56521	-0.02141
1710.63665	-0.01922
1708.70808	-0.01479
1706.77952	-0.01096
1704.85096	-0.00888
1702.92239	-0.00785
1700.99383	-0.00710
1699.06526	-0.00641
1697.13670	-0.00569
1695.20813	-0.00498
1693.27957	-0.00443
1691.35100	-0.00401
1689.42244	-0.00366
1687.49388	-0.00330
1685.56531	-0.00294
1683.63675	-0.00277
1681.70818	-0.00283
1679.77962	-0.00289
1677.85105	-0.00287
1675.92249	-0.00281
1673.99392	-0.00280
1672.06536	-0.00281
1670.13680	-0.00281
1668.20823	-0.00286
1666.27967	-0.00296
1664.35110	-0.00302
1662.42254	-0.00307
1660.49397	-0.00316
1658.56541	-0.00320
1656.63684	-0.00308
1654.70828	-0.00281
1652.77972	-0.00270
1650.85115	-0.00285
1648.92259	-0.00296
1646.99402	-0.00293
1645.06546	-0.00294
1643.13689	-0.00300
1641.20833	-0.00300
1639.27976	-0.00290
1637.35120	-0.00274
1635.42264	-0.00265
1633.49407	-0.00270
1631.56551	-0.00276
1629.63694	-0.00275
1627.70838	-0.00272
1625.77981	-0.00267
1623.85125	-0.00263
1621.92269	-0.00265
1619.99412	-0.00265
1618.06556	-0.00256
1616.13699	-0.00253
1614.20843	-0.00262
1612.27986	-0.00269
1610.35130	-0.00270
1608.42273	-0.00270
1606.49417	-0.00270
1604.56561	-0.00271
1602.63704	-0.00271
1600.70848	-0.00272
1598.77991	-0.00272
1596.85135	-0.00273
1594.92278	-0.00274
1592.99422	-0.00274
1591.06565	-0.00274
1589.13709	-0.00273
1587.20853	-0.00274
1585.27996	-0.00274
1583.35140	-0.00275
1581.42283	-0.00275
1579.49427	-0.00268
1577.56570	-0.00255
1575.63714	-0.00252
1573.70857	-0.00260
1571.78001	-0.00263
1569.85145	-0.00261
1567.92288	-0.00263
1565.99432	-0.00266
1564.06575	-0.00264
1562.13719	-0.00246
1560.20862	-0.00222
1558.28006	-0.00219
1556.35149	-0.00239
1554.42293	-0.00256
1552.49437	-0.00264
1550.56580	-0.00269
1548.63724	-0.00271
1546.70867	-0.00270
1544.78011	-0.00264
1542.85154	-0.00254
1540.92298	-0.00248
1538.99441	-0.00257
1537.06585	-0.00277
1535.13729	-0.00286
1533.20872	-0.00288
1531.28016	-0.00291
1529.35159	-0.00291
1527.42303	-0.00284
1525.49446	-0.00274
1523.56590	-0.00262
1521.63733	-0.00253
1519.70877	-0.00256
1517.78021	-0.00263
1515.85164	-0.00270
1513.92308	-0.00274
1511.99451	-0.00274
1510.06595	-0.00267
1508.13738	-0.00253
1506.20882	-0.00250
1504.28025	-0.00266
1502.35169	-0.00281
1500.42313	-0.00281
1498.49456	-0.00273
1496.56600	-0.00270
1494.63743	-0.00275
1492.70887	-0.00279
1490.78030	-0.00277
1488.85174	-0.00277
1486.92317	-0.00280
1484.99461	-0.00285
1483.06605	-0.00289
1481.13748	-0.00292
1479.20892	-0.00293
1477.28035	-0.00291
1475.35179	-0.00285
1473.42322	-0.00282
1471.49466	-0.00289
1469.56610	-0.00301
1467.63753	-0.00305
1465.70897	-0.00305
1463.78040	-0.00310
1461.85184	-0.00316
1459.92327	-0.00315
1457.99471	-0.00311
1456.06614	-0.00326
1454.13758	-0.00357
1452.20902	-0.00386
1450.28045	-0.00403
1448.35189	-0.00418
1446.42332	-0.00441
1444.49476	-0.00468
1442.56619	-0.00478
1440.63763	-0.00472
1438.70906	-0.00473
1436.78050	-0.00505
1434.85194	-0.00546
1432.92337	-0.00545
1430.99481	-0.00495
1429.06624	-0.00446
1427.13768	-0.00425
1425.20911	-0.00424
1423.28055	-0.00437
1421.35198	-0.00466
1419.42342	-0.00504
1417.49486	-0.00533
1415.56629	-0.00536
1413.63773	-0.00511
1411.70916	-0.00466
1409.78060	-0.00414
1407.85203	-0.00368
1405.92347	-0.00336
1403.99490	-0.00317
1402.06634	-0.00306
1400.13778	-0.00298
1398.20921	-0.00293
1396.28065	-0.00288
1394.35208	-0.00287
1392.42352	-0.00288
1390.49495	-0.00288
1388.56639	-0.00287
1386.63782	-0.00287
1384.70926	-0.00290
1382.78070	-0.00292
1380.85213	-0.00296
1378.92357	-0.00305
1376.99500	-0.00320
1375.06644	-0.00344
1373.13787	-0.00373
1371.20931	-0.00400
1369.28074	-0.00428
1367.35218	-0.00471
1365.42362	-0.00515
1363.49505	-0.00536
1361.56649	-0.00535
1359.63792	-0.00508
1357.70936	-0.00450
1355.78079	-0.00379
1353.85223	-0.00329
1351.92366	-0.00306
1349.99510	-0.00297
1348.06654	-0.00291
1346.13797	-0.00287
1344.20941	-0.00285
1342.28084	-0.00283
1340.35228	-0.00283
1338.42371	-0.00290
1336.49515	-0.00309
1334.56659	-0.00347
1332.63802	-0.00405
1330.70946	-0.00469
1328.78089	-0.00529
1326.85233	-0.00585
1324.92376	-0.00636
1322.99520	-0.00669
1321.06663	-0.00677
1319.13807	-0.00668
1317.20951	-0.00653
1315.28094	-0.00645
1313.35238	-0.00654
1311.42381	-0.00682
1309.49525	-0.00723
1307.56668	-0.00791
1305.63812	-0.00897
1303.70955	-0.00962
1301.78099	-0.00866
1299.85243	-0.00651
1297.92386	-0.00469
1295.99530	-0.00381
1294.06673	-0.00356
1292.13817	-0.00358
1290.20960	-0.00368
1288.28104	-0.00373
1286.35247	-0.00370
1284.42391	-0.00361
1282.49535	-0.00349
1280.56678	-0.00337
1278.63822	-0.00327
1276.70965	-0.00320
1274.78109	-0.00315
1272.85252	-0.00311
1270.92396	-0.00307
1268.99539	-0.00303
1267.06683	-0.00299
1265.13827	-0.00295
1263.20970	-0.00290
1261.28114	-0.00287
1259.35257	-0.00285
1257.42401	-0.00283
1255.49544	-0.00281
1253.56688	-0.00279
1251.63831	-0.00279
1249.70975	-0.00279
1247.78119	-0.00278
1245.85262	-0.00276
1243.92406	-0.00275
1241.99549	-0.00274
1240.06693	-0.00273
1238.13836	-0.00271
1236.20980	-0.00269
1234.28123	-0.00266
1232.35267	-0.00265
1230.42411	-0.00265
1228.49554	-0.00264
1226.56698	-0.00262
1224.63841	-0.00260
1222.70985	-0.00258
1220.78128	-0.00256
1218.85272	-0.00255
1216.92415	-0.00254
1214.99559	-0.00254
1213.06703	-0.00255
1211.13846	-0.00257
1209.20990	-0.00258
1207.28133	-0.00257
1205.35277	-0.00256
1203.42420	-0.00256
1201.49564	-0.00256
1199.56708	-0.00257
1197.63851	-0.00258
1195.70995	-0.00258
1193.78138	-0.00257
1191.85282	-0.00256
1189.92425	-0.00255
1187.99569	-0.00255
1186.06712	-0.00256
1184.13856	-0.00255
1182.21000	-0.00254
1180.28143	-0.00254
1178.35287	-0.00255
1176.42430	-0.00255
1174.49574	-0.00256
1172.56717	-0.00257
1170.63861	-0.00259
1168.71004	-0.00259
1166.78148	-0.00258
1164.85292	-0.00258
1162.92435	-0.00258
1160.99579	-0.00261
1159.06722	-0.00262
1157.13866	-0.00260
1155.21009	-0.00259
1153.28153	-0.00259
1151.35296	-0.00260
1149.42440	-0.00260
1147.49584	-0.00261
1145.56727	-0.00262
1143.63871	-0.00261
1141.71014	-0.00262
1139.78158	-0.00263
1137.85301	-0.00264
1135.92445	-0.00264
1133.99588	-0.00262
1132.06732	-0.00261
1130.13876	-0.00261
1128.21019	-0.00262
1126.28163	-0.00261
1124.35306	-0.00261
1122.42450	-0.00261
1120.49593	-0.00261
1118.56737	-0.00260
1116.63880	-0.00259
1114.71024	-0.00260
1112.78168	-0.00260
1110.85311	-0.00260
1108.92455	-0.00259
1106.99598	-0.00259
1105.06742	-0.00257
1103.13885	-0.00254
1101.21029	-0.00251
1099.28172	-0.00249
1097.35316	-0.00250
1095.42460	-0.00251
1093.49603	-0.00252
1091.56747	-0.00253
1089.63890	-0.00254
1087.71034	-0.00254
1085.78177	-0.00252
1083.85321	-0.00252
1081.92464	-0.00252
1079.99608	-0.00252
1078.06752	-0.00251
1076.13895	-0.00250
1074.21039	-0.00251
1072.28182	-0.00252
1070.35326	-0.00252
1068.42469	-0.00256
1066.49613	-0.00262
1064.56756	-0.00277
1062.63900	-0.00309
1060.71044	-0.00379
1058.78187	-0.00484
1056.85331	-0.00562
1054.92474	-0.00551
1052.99618	-0.00471
1051.06761	-0.00386
1049.13905	-0.00331
1047.21049	-0.00302
1045.28192	-0.00286
1043.35336	-0.00273
1041.42479	-0.00264
1039.49623	-0.00262
1037.56766	-0.00265
1035.63910	-0.00275
1033.71053	-0.00297
1031.78197	-0.00338
1029.85341	-0.00385
1027.92484	-0.00410
1025.99628	-0.00405
1024.06771	-0.00382
1022.13915	-0.00351
1020.21058	-0.00321
1018.28202	-0.00297
1016.35345	-0.00283
1014.42489	-0.00275
1012.49633	-0.00268
1010.56776	-0.00262
1008.63920	-0.00259
1006.71063	-0.00259
1004.78207	-0.00259
1002.85350	-0.00258
1000.92494	-0.00260
998.99637	-0.00268
997.06781	-0.00279
995.13925	-0.00292
993.21068	-0.00306
991.28212	-0.00321
989.35355	-0.00338
987.42499	-0.00363
985.49642	-0.00400
983.56786	-0.00446
981.63929	-0.00494
979.71073	-0.00528
977.78217	-0.00532
975.85360	-0.00512
973.92504	-0.00495
971.99647	-0.00504
970.06791	-0.00551
968.13934	-0.00635
966.21078	-0.00748
964.28221	-0.00879
962.35365	-0.01021
960.42509	-0.01171
958.49652	-0.01316
956.56796	-0.01424
954.63939	-0.01450
952.71083	-0.01378
950.78226	-0.01227
948.85370	-0.01040
946.92513	-0.00858
944.99657	-0.00702
943.06801	-0.00580
941.13944	-0.00489
939.21088	-0.00421
937.28231	-0.00372
935.35375	-0.00338
933.42518	-0.00315
931.49662	-0.00301
929.56805	-0.00289
927.63949	-0.00282
925.71093	-0.00278
923.78236	-0.00273
921.85380	-0.00267
919.92523	-0.00260
917.99667	-0.00252
916.06810	-0.00243
914.13954	-0.00238
912.21098	-0.00236
910.28241	-0.00238
908.35385	-0.00243
906.42528	-0.00247
904.49672	-0.00251
902.56815	-0.00255
900.63959	-0.00257
898.71102	-0.00253
896.78246	-0.00241
894.85390	-0.00229
892.92533	-0.00223
890.99677	-0.00223
889.06820	-0.00224
887.13964	-0.00222
885.21107	-0.00218
883.28251	-0.00215
881.35394	-0.00214
879.42538	-0.00212
877.49682	-0.00212
875.56825	-0.00211
873.63969	-0.00209
871.71112	-0.00204
869.78256	-0.00203
867.85399	-0.00207
865.92543	-0.00208
863.99686	-0.00205
862.06830	-0.00203
860.13974	-0.00203
858.21117	-0.00205
856.28261	-0.00208
854.35404	-0.00209
852.42548	-0.00208
850.49691	-0.00202
848.56835	-0.00195
846.63978	-0.00193
844.71122	-0.00195
842.78266	-0.00197
840.85409	-0.00196
838.92553	-0.00193
836.99696	-0.00192
835.06840	-0.00195
833.13983	-0.00199
831.21127	-0.00198
829.28270	-0.00194
827.35414	-0.00194
825.42558	-0.00197
823.49701	-0.00197
821.56845	-0.00196
819.63988	-0.00191
817.71132	-0.00186
815.78275	-0.00189
813.85419	-0.00190
811.92562	-0.00186
809.99706	-0.00184
808.06850	-0.00186
806.13993	-0.00187
804.21137	-0.00187
802.28280	-0.00189
800.35424	-0.00191
798.42567	-0.00193
796.49711	-0.00189
794.56854	-0.00181
792.63998	-0.00177
790.71142	-0.00181
788.78285	-0.00184
786.85429	-0.00181
784.92572	-0.00177
782.99716	-0.00178
781.06859	-0.00185
779.14003	-0.00186
777.21147	-0.00187
775.28290	-0.00190
773.35434	-0.00190
771.42577	-0.00187
769.49721	-0.00185
767.56864	-0.00184
765.64008	-0.00184
763.71151	-0.00186
761.78295	-0.00178
759.85439	-0.00163
757.92582	-0.00158
755.99726	-0.00167
754.06869	-0.00173
752.14013	-0.00174
750.21156	-0.00191
748.28300	-0.00221
746.35443	-0.00235
744.42587	-0.00235
742.49731	-0.00236
740.56874	-0.00238
738.64018	-0.00233
736.71161	-0.00239
734.78305	-0.00253
732.85448	-0.00243
730.92592	-0.00200
728.99735	-0.00188
727.06879	-0.00243
725.14023	-0.00331
723.21166	-0.00427
721.28310	-0.00401
719.35453	-0.00320
717.42597	-0.00409
715.49740	-0.00492
713.56884	-0.00444
711.64027	-0.00423
709.71171	-0.00470
707.78315	-0.00506
705.85458	-0.00505
703.92602	-0.00511
701.99745	-0.00539
700.06889	-0.00572
698.14032	-0.00588
696.21176	-0.00584
694.28319	-0.00586
692.35463	-0.00591
690.42607	-0.00588
688.49750	-0.00590
686.56894	-0.00600
684.64037	-0.00602
682.71181	-0.00600
680.78324	-0.00596
678.85468	-0.00594
676.92611	-0.00599
674.99755	-0.00607
673.06899	-0.00626
671.14042	-0.00642
669.21186	-0.00620
667.28329	-0.00564
665.35473	-0.00536
663.42616	-0.00557
661.49760	-0.00583
659.56903	-0.00587
657.64047	-0.00578
655.71191	-0.00567
653.78334	-0.00566
651.85478	-0.00587
649.92621	-0.00607
647.99765	-0.00622
646.06908	-0.00633
644.14052	-0.00636
642.21195	-0.00630
640.28339	-0.00614
638.35483	-0.00607
636.42626	-0.00624
634.49770	-0.00640
632.56913	-0.00631
630.64057	-0.00606
628.71200	-0.00578
626.78344	-0.00564
624.85488	-0.00572
622.92631	-0.00592
620.99775	-0.00609
619.06918	-0.00622
617.14062	-0.00628
615.21205	-0.00626
613.28349	-0.00618
611.35492	-0.00603
609.42636	-0.00590
607.49780	-0.00590
605.56923	-0.00598
603.64067	-0.00606
601.71210	-0.00602
599.78354	-0.00587
597.85497	-0.00584
595.92641	-0.00597
593.99784	-0.00605
592.06928	-0.00606
590.14072	-0.00611
588.21215	-0.00620
586.28359	-0.00615
584.35502	-0.00601
582.42646	-0.00593
580.49789	-0.00586
578.56933	-0.00572
576.64076	-0.00562
574.71220	-0.00566
572.78364	-0.00577
570.85507	-0.00582
568.92651	-0.00582
566.99794	-0.00592
565.06938	-0.00600
563.14081	-0.00596
561.21225	-0.00590
559.28368	-0.00603
557.35512	-0.00633
555.42656	-0.00643
553.49799	-0.00623
551.56943	-0.00610
549.64086	-0.00605
547.71230	-0.00584
545.78373	-0.00573
543.85517	-0.00587
541.92660	-0.00599
539.99804	-0.00594
538.06948	-0.00581
536.14091	-0.00577
534.21235	-0.00583
532.28378	-0.00590
530.35522	-0.00595
528.42665	-0.00606
526.49809	-0.00631
524.56952	-0.00652
522.64096	-0.00643
520.71240	-0.00629
518.78383	-0.00628
516.85527	-0.00613
514.92670	-0.00581
512.99814	-0.00566
511.06957	-0.00578
509.14101	-0.00594
507.21244	-0.00604
505.28388	-0.00625
503.35532	-0.00638
501.42675	-0.00615
499.49819	-0.00586
497.56962	-0.00595
495.64106	-0.00613
493.71249	-0.00611
491.78393	-0.00607
489.85537	-0.00608
487.92680	-0.00593
485.99824	-0.00565
484.06967	-0.00562
482.14111	-0.00583
480.21254	-0.00581
478.28398	-0.00527
476.35541	-0.00428
474.42685	-0.00393
472.49829	-0.00476
470.56972	-0.00556
468.64116	-0.00576
466.71259	-0.00596
464.78403	-0.00626
462.85546	-0.00657
460.92690	-0.00709
458.99833	-0.00728
457.06977	-0.00646
455.14121	-0.00558
453.21264	-0.00575
451.28408	-0.00640
449.35551	-0.00687
447.42695	-0.00733
445.49838	-0.00770
443.56982	-0.00781
441.64125	-0.00774
439.71269	-0.00723
437.78413	-0.00622
435.85556	-0.00536
433.92700	-0.00509
431.99843	-0.00524
430.06987	-0.00554
428.14130	-0.00585
426.21274	-0.00599
424.28417	-0.00598
422.35561	-0.00616
420.42705	-0.00648
418.49848	-0.00649
416.56992	-0.00625
414.64135	-0.00619
412.71279	-0.00629
410.78422	-0.00644
408.85566	-0.00648
406.92709	-0.00630
404.99853	-0.00615
403.06997	-0.00609
401.14140	-0.00596
399.21284	-0.00581
397.28427	-0.00583
395.35571	-0.00598
393.42714	-0.00606
391.49858	-0.00599
389.57001	-0.00597
387.64145	-0.00620
385.71289	-0.00634
383.78432	-0.00600
381.85576	-0.00543
379.92719	-0.00508
377.99863	-0.00516
376.07006	-0.00549
374.14150	-0.00550
372.21293	-0.00514
370.28437	-0.00509
368.35581	-0.00549
