3997.91406	-0.00114
3995.98550	-0.00118
3994.05693	-0.00117
3992.12837	-0.00114
3990.19980	-0.00114
3988.27124	-0.00114
3986.34268	-0.00115
3984.41411	-0.00116
3982.48555	-0.00115
3980.55698	-0.00116
3978.62842	-0.00117
3976.69985	-0.00117
3974.77129	-0.00114
3972.84272	-0.00113
3970.91416	-0.00114
3968.98560	-0.00116
3967.05703	-0.00115
3965.12847	-0.00113
3963.19990	-0.00114
3961.27134	-0.00114
3959.34277	-0.00115
3957.41421	-0.00117
3955.48564	-0.00117
3953.55708	-0.00116
3951.62852	-0.00115
3949.69995	-0.00113
3947.77139	-0.00111
3945.84282	-0.00111
3943.91426	-0.00112
3941.98569	-0.00113
3940.05713	-0.00114
3938.12856	-0.00116
3936.20000	-0.00116
3934.27144	-0.00114
3932.34287	-0.00112
3930.41431	-0.00113
3928.48574	-0.00114
3926.55718	-0.00115
3924.62861	-0.00116
3922.70005	-0.00118
3920.77148	-0.00117
3918.84292	-0.00115
3916.91436	-0.00114
3914.98579	-0.00115
3913.05723	-0.00118
3911.12866	-0.00119
3909.20010	-0.00118
3907.27153	-0.00113
3905.34297	-0.00105
3903.41440	-0.00100
3901.48584	-0.00101
3899.55728	-0.00106
3897.62871	-0.00112
3895.70015	-0.00115
3893.77158	-0.00111
3891.84302	-0.00107
3889.91445	-0.00108
3887.98589	-0.00110
3886.05733	-0.00110
3884.12876	-0.00111
3882.20020	-0.00113
3880.27163	-0.00113
3878.34307	-0.00116
3876.41450	-0.00116
3874.48594	-0.00113
3872.55737	-0.00107
3870.62881	-0.00103
3868.70025	-0.00105
3866.77168	-0.00107
3864.84312	-0.00107
3862.91455	-0.00110
3860.98599	-0.00113
3859.05742	-0.00111
3857.12886	-0.00097
3855.20029	-0.00073
3853.27173	-0.00068
3851.34317	-0.00090
3849.41460	-0.00112
3847.48604	-0.00119
3845.55747	-0.00117
3843.62891	-0.00115
3841.70034	-0.00110
3839.77178	-0.00099
3837.84321	-0.00095
3835.91465	-0.00104
3833.98609	-0.00114
3832.05752	-0.00118
3830.12896	-0.00120
3828.20039	-0.00122
3826.27183	-0.00122
3824.34326	-0.00116
3822.41470	-0.00107
3820.48613	-0.00106
3818.55757	-0.00107
3816.62901	-0.00104
3814.70044	-0.00111
3812.77188	-0.00123
3810.84331	-0.00126
3808.91475	-0.00117
3806.98618	-0.00108
3805.05762	-0.00105
3803.12905	-0.00099
3801.20049	-0.00099
3799.27193	-0.00110
3797.34336	-0.00118
3795.41480	-0.00121
3793.48623	-0.00123
3791.55767	-0.00125
3789.62910	-0.00125
3787.70054	-0.00126
3785.77197	-0.00127
3783.84341	-0.00129
3781.91485	-0.00130
3779.98628	-0.00131
3778.05772	-0.00132
3776.12915	-0.00132
3774.20059	-0.00129
3772.27202	-0.00125
3770.34346	-0.00121
3768.41489	-0.00120
3766.48633	-0.00121
3764.55777	-0.00125
3762.62920	-0.00127
3760.70064	-0.00123
3758.77207	-0.00121
3756.84351	-0.00122
3754.91494	-0.00115
3752.98638	-0.00098
3751.05781	-0.00089
3749.12925	-0.00094
3747.20069	-0.00097
3745.27212	-0.00092
3743.34356	-0.00098
3741.41499	-0.00114
3739.48643	-0.00120
3737.55786	-0.00114
3735.62930	-0.00109
3733.70074	-0.00111
3731.77217	-0.00117
3729.84361	-0.00124
3727.91504	-0.00127
3725.98648	-0.00127
3724.05791	-0.00128
3722.12935	-0.00129
3720.20078	-0.00132
3718.27222	-0.00136
3716.34366	-0.00134
3714.41509	-0.00126
3712.48653	-0.00118
3710.55796	-0.00118
3708.62940	-0.00125
3706.70083	-0.00131
3704.77227	-0.00132
3702.84370	-0.00131
3700.91514	-0.00134
3698.98658	-0.00139
3697.05801	-0.00140
3695.12945	-0.00137
3693.20088	-0.00131
3691.27232	-0.00120
3689.34375	-0.00113
3687.41519	-0.00121
3685.48662	-0.00135
3683.55806	-0.00142
3681.62950	-0.00142
3679.70093	-0.00134
3677.77237	-0.00120
3675.84380	-0.00112
3673.91524	-0.00115
3671.98667	-0.00117
3670.05811	-0.00119
3668.12954	-0.00129
3666.20098	-0.00141
3664.27242	-0.00145
3662.34385	-0.00144
3660.41529	-0.00142
3658.48672	-0.00137
3656.55816	-0.00134
3654.62959	-0.00135
3652.70103	-0.00130
3650.77246	-0.00119
3648.84390	-0.00117
3646.91534	-0.00127
3644.98677	-0.00137
3643.05821	-0.00142
3641.12964	-0.00144
3639.20108	-0.00146
3637.27251	-0.00146
3635.34395	-0.00145
3633.41538	-0.00143
3631.48682	-0.00135
3629.55826	-0.00125
3627.62969	-0.00131
3625.70113	-0.00146
3623.77256	-0.00151
3621.84400	-0.00142
3619.91543	-0.00134
3617.98687	-0.00137
3616.05830	-0.00144
3614.12974	-0.00144
3612.20118	-0.00143
3610.27261	-0.00142
3608.34405	-0.00144
3606.41548	-0.00148
3604.48692	-0.00150
3602.55835	-0.00150
3600.62979	-0.00151
3598.70123	-0.00151
3596.77266	-0.00149
3594.84410	-0.00149
3592.91553	-0.00150
3590.98697	-0.00150
3589.05840	-0.00147
3587.12984	-0.00147
3585.20127	-0.00151
3583.27271	-0.00154
3581.34415	-0.00156
3579.41558	-0.00157
3577.48702	-0.00157
3575.55845	-0.00156
3573.62989	-0.00155
3571.70132	-0.00153
3569.77276	-0.00149
3567.84419	-0.00146
3565.91563	-0.00149
3563.98707	-0.00155
3562.05850	-0.00157
3560.12994	-0.00156
3558.20137	-0.00158
3556.27281	-0.00160
3554.34424	-0.00161
3552.41568	-0.00161
3550.48711	-0.00160
3548.55855	-0.00160
3546.62999	-0.00159
3544.70142	-0.00159
3542.77286	-0.00160
3540.84429	-0.00162
3538.91573	-0.00163
3536.98716	-0.00164
3535.05860	-0.00166
3533.13003	-0.00167
3531.20147	-0.00167
3529.27291	-0.00166
3527.34434	-0.00164
3525.41578	-0.00163
3523.48721	-0.00163
3521.55865	-0.00164
3519.63008	-0.00166
3517.70152	-0.00168
3515.77295	-0.00169
3513.84439	-0.00168
3511.91583	-0.00167
3509.98726	-0.00169
3508.05870	-0.00171
3506.13013	-0.00172
3504.20157	-0.00171
3502.27300	-0.00171
3500.34444	-0.00173
3498.41587	-0.00174
3496.48731	-0.00173
3494.55875	-0.00175
3492.63018	-0.00177
3490.70162	-0.00178
3488.77305	-0.00176
3486.84449	-0.00176
3484.91592	-0.00175
3482.98736	-0.00173
3481.05879	-0.00173
3479.13023	-0.00176
3477.20167	-0.00180
3475.27310	-0.00183
3473.34454	-0.00183
3471.41597	-0.00182
3469.48741	-0.00181
3467.55884	-0.00180
3465.63028	-0.00182
3463.70171	-0.00185
3461.77315	-0.00186
3459.84459	-0.00185
3457.91602	-0.00185
3455.98746	-0.00186
3454.05889	-0.00185
3452.13033	-0.00183
3450.20176	-0.00181
3448.27320	-0.00181
3446.34464	-0.00184
3444.41607	-0.00187
3442.48751	-0.00188
3440.55894	-0.00188
3438.63038	-0.00188
3436.70181	-0.00188
3434.77325	-0.00187
3432.84468	-0.00190
3430.91612	-0.00195
3428.98756	-0.00198
3427.05899	-0.00198
3425.13043	-0.00199
3423.20186	-0.00199
3421.27330	-0.00199
3419.34473	-0.00196
3417.41617	-0.00193
3415.48760	-0.00192
3413.55904	-0.00191
3411.63048	-0.00192
3409.70191	-0.00194
3407.77335	-0.00193
3405.84478	-0.00192
3403.91622	-0.00192
3401.98765	-0.00193
3400.05909	-0.00195
3398.13052	-0.00196
3396.20196	-0.00195
3394.27340	-0.00193
3392.34483	-0.00190
3390.41627	-0.00188
3388.48770	-0.00187
3386.55914	-0.00187
3384.63057	-0.00189
3382.70201	-0.00193
3380.77344	-0.00196
3378.84488	-0.00196
3376.91632	-0.00195
3374.98775	-0.00196
3373.05919	-0.00199
3371.13062	-0.00198
3369.20206	-0.00197
3367.27349	-0.00196
3365.34493	-0.00197
3363.41636	-0.00197
3361.48780	-0.00195
3359.55924	-0.00193
3357.63067	-0.00193
3355.70211	-0.00196
3353.77354	-0.00199
3351.84498	-0.00200
3349.91641	-0.00199
3347.98785	-0.00200
3346.05928	-0.00202
3344.13072	-0.00203
3342.20216	-0.00201
3340.27359	-0.00200
3338.34503	-0.00199
3336.41646	-0.00199
3334.48790	-0.00201
3332.55933	-0.00202
3330.63077	-0.00201
3328.70220	-0.00200
3326.77364	-0.00200
3324.84508	-0.00200
3322.91651	-0.00200
3320.98795	-0.00201
3319.05938	-0.00202
3317.13082	-0.00203
3315.20225	-0.00205
3313.27369	-0.00207
3311.34513	-0.00209
3309.41656	-0.00206
3307.48800	-0.00203
3305.55943	-0.00203
3303.63087	-0.00205
3301.70230	-0.00204
3299.77374	-0.00203
3297.84517	-0.00202
3295.91661	-0.00201
3293.98805	-0.00200
3292.05948	-0.00202
3290.13092	-0.00205
3288.20235	-0.00207
3286.27379	-0.00206
3284.34522	-0.00204
3282.41666	-0.00205
3280.48809	-0.00207
3278.55953	-0.00208
3276.63097	-0.00210
3274.70240	-0.00212
3272.77384	-0.00213
3270.84527	-0.00214
3268.91671	-0.00214
3266.98814	-0.00214
3265.05958	-0.00214
3263.13101	-0.00214
3261.20245	-0.00215
3259.27389	-0.00215
3257.34532	-0.00214
3255.41676	-0.00213
3253.48819	-0.00215
3251.55963	-0.00218
3249.63106	-0.00218
3247.70250	-0.00217
3245.77393	-0.00216
3243.84537	-0.00217
3241.91681	-0.00219
3239.98824	-0.00220
3238.05968	-0.00221
3236.13111	-0.00221
3234.20255	-0.00221
3232.27398	-0.00221
3230.34542	-0.00223
3228.41685	-0.00224
3226.48829	-0.00226
3224.55973	-0.00227
3222.63116	-0.00227
3220.70260	-0.00226
3218.77403	-0.00225
3216.84547	-0.00226
3214.91690	-0.00227
3212.98834	-0.00229
3211.05977	-0.00229
3209.13121	-0.00230
3207.20265	-0.00232
3205.27408	-0.00232
3203.34552	-0.00230
3201.41695	-0.00231
3199.48839	-0.00234
3197.55982	-0.00236
3195.63126	-0.00238
3193.70269	-0.00241
3191.77413	-0.00243
3189.84557	-0.00243
3187.91700	-0.00243
3185.98844	-0.00245
3184.05987	-0.00248
3182.13131	-0.00251
3180.20274	-0.00250
3178.27418	-0.00248
3176.34562	-0.00247
3174.41705	-0.00249
3172.48849	-0.00249
3170.55992	-0.00249
3168.63136	-0.00249
3166.70279	-0.00250
3164.77423	-0.00250
3162.84566	-0.00252
3160.91710	-0.00256
3158.98854	-0.00258
3157.05997	-0.00257
3155.13141	-0.00257
3153.20284	-0.00258
3151.27428	-0.00260
3149.34571	-0.00262
3147.41715	-0.00263
3145.48858	-0.00263
3143.56002	-0.00263
3141.63146	-0.00264
3139.70289	-0.00265
3137.77433	-0.00265
3135.84576	-0.00266
3133.91720	-0.00269
3131.98863	-0.00270
3130.06007	-0.00271
3128.13150	-0.00274
3126.20294	-0.00277
3124.27438	-0.00279
3122.34581	-0.00280
3120.41725	-0.00279
3118.48868	-0.00278
3116.56012	-0.00278
3114.63155	-0.00280
3112.70299	-0.00282
3110.77442	-0.00284
3108.84586	-0.00285
3106.91730	-0.00285
3104.98873	-0.00287
3103.06017	-0.00289
3101.13160	-0.00291
3099.20304	-0.00293
3097.27447	-0.00293
3095.34591	-0.00295
3093.41734	-0.00297
3091.48878	-0.00297
3089.56022	-0.00297
3087.63165	-0.00296
3085.70309	-0.00296
3083.77452	-0.00298
3081.84596	-0.00299
3079.91739	-0.00298
3077.98883	-0.00297
3076.06026	-0.00297
3074.13170	-0.00298
3072.20314	-0.00298
3070.27457	-0.00298
3068.34601	-0.00299
3066.41744	-0.00299
3064.48888	-0.00299
3062.56031	-0.00299
3060.63175	-0.00299
3058.70318	-0.00301
3056.77462	-0.00305
3054.84606	-0.00307
3052.91749	-0.00309
3050.98893	-0.00311
3049.06036	-0.00314
3047.13180	-0.00318
3045.20323	-0.00322
3043.27467	-0.00326
3041.34610	-0.00329
3039.41754	-0.00334
3037.48898	-0.00341
3035.56041	-0.00347
3033.63185	-0.00349
3031.70328	-0.00350
3029.77472	-0.00353
3027.84615	-0.00355
3025.91759	-0.00354
3023.98903	-0.00351
3022.06046	-0.00348
3020.13190	-0.00346
3018.20333	-0.00343
3016.27477	-0.00341
3014.34620	-0.00343
3012.41764	-0.00346
3010.48907	-0.00346
3008.56051	-0.00345
3006.63195	-0.00347
3004.70338	-0.00352
3002.77482	-0.00357
3000.84625	-0.00362
2998.91769	-0.00364
2996.98912	-0.00366
2995.06056	-0.00367
2993.13199	-0.00367
2991.20343	-0.00366
2989.27487	-0.00365
2987.34630	-0.00366
2985.41774	-0.00368
2983.48917	-0.00370
2981.56061	-0.00373
2979.63204	-0.00377
2977.70348	-0.00381
2975.77491	-0.00384
2973.84635	-0.00385
2971.91779	-0.00384
2969.98922	-0.00384
2968.06066	-0.00383
2966.13209	-0.00380
2964.20353	-0.00378
2962.27496	-0.00378
2960.34640	-0.00378
2958.41783	-0.00378
2956.48927	-0.00378
2954.56071	-0.00380
2952.63214	-0.00384
2950.70358	-0.00386
2948.77501	-0.00388
2946.84645	-0.00393
2944.91788	-0.00401
2942.98932	-0.00409
2941.06075	-0.00414
2939.13219	-0.00415
2937.20363	-0.00414
2935.27506	-0.00415
2933.34650	-0.00416
2931.41793	-0.00420
2929.48937	-0.00424
2927.56080	-0.00427
2925.63224	-0.00429
2923.70367	-0.00429
2921.77511	-0.00429
2919.84655	-0.00429
2917.91798	-0.00428
2915.98942	-0.00425
2914.06085	-0.00420
2912.13229	-0.00413
2910.20372	-0.00408
2908.27516	-0.00405
2906.34659	-0.00403
2904.41803	-0.00400
2902.48947	-0.00396
2900.56090	-0.00391
2898.63234	-0.00387
2896.70377	-0.00384
2894.77521	-0.00381
2892.84664	-0.00378
2890.91808	-0.00374
2888.98952	-0.00370
2887.06095	-0.00364
2885.13239	-0.00359
2883.20382	-0.00357
2881.27526	-0.00357
2879.34669	-0.00358
2877.41813	-0.00358
2875.48956	-0.00359
2873.56100	-0.00360
2871.63244	-0.00361
2869.70387	-0.00360
2867.77531	-0.00359
2865.84674	-0.00359
2863.91818	-0.00359
2861.98961	-0.00359
2860.06105	-0.00359
2858.13248	-0.00357
2856.20392	-0.00354
2854.27536	-0.00353
2852.34679	-0.00351
2850.41823	-0.00348
2848.48966	-0.00345
2846.56110	-0.00343
2844.63253	-0.00341
2842.70397	-0.00338
2840.77540	-0.00334
2838.84684	-0.00332
2836.91828	-0.00330
2834.98971	-0.00329
2833.06115	-0.00328
2831.13258	-0.00330
2829.20402	-0.00332
2827.27545	-0.00336
2825.34689	-0.00339
2823.41832	-0.00344
2821.48976	-0.00348
2819.56120	-0.00351
2817.63263	-0.00355
2815.70407	-0.00358
2813.77550	-0.00359
2811.84694	-0.00356
2809.91837	-0.00353
2807.98981	-0.00351
2806.06124	-0.00350
2804.13268	-0.00349
2802.20412	-0.00348
2800.27555	-0.00349
2798.34699	-0.00350
2796.41842	-0.00349
2794.48986	-0.00347
2792.56129	-0.00346
2790.63273	-0.00346
2788.70416	-0.00345
2786.77560	-0.00345
2784.84704	-0.00345
2782.91847	-0.00344
2780.98991	-0.00342
2779.06134	-0.00339
2777.13278	-0.00338
2775.20421	-0.00338
2773.27565	-0.00339
2771.34708	-0.00339
2769.41852	-0.00338
2767.48996	-0.00339
2765.56139	-0.00340
2763.63283	-0.00342
2761.70426	-0.00343
2759.77570	-0.00346
2757.84713	-0.00351
2755.91857	-0.00358
2753.99001	-0.00364
2752.06144	-0.00367
2750.13288	-0.00368
2748.20431	-0.00368
2746.27575	-0.00370
2744.34718	-0.00372
2742.41862	-0.00372
2740.49005	-0.00370
2738.56149	-0.00368
2736.63293	-0.00365
2734.70436	-0.00363
2732.77580	-0.00362
2730.84723	-0.00364
2728.91867	-0.00364
2726.99010	-0.00362
2725.06154	-0.00361
2723.13297	-0.00362
2721.20441	-0.00365
2719.27585	-0.00369
2717.34728	-0.00373
2715.41872	-0.00379
2713.49015	-0.00386
2711.56159	-0.00391
2709.63302	-0.00393
2707.70446	-0.00392
2705.77589	-0.00391
2703.84733	-0.00390
2701.91877	-0.00391
2699.99020	-0.00394
2698.06164	-0.00401
2696.13307	-0.00411
2694.20451	-0.00422
2692.27594	-0.00429
2690.34738	-0.00431
2688.41881	-0.00428
2686.49025	-0.00423
2684.56169	-0.00416
2682.63312	-0.00411
2680.70456	-0.00408
2678.77599	-0.00405
2676.84743	-0.00403
2674.91886	-0.00401
2672.99030	-0.00397
2671.06173	-0.00390
2669.13317	-0.00383
2667.20461	-0.00376
2665.27604	-0.00372
2663.34748	-0.00368
2661.41891	-0.00365
2659.49035	-0.00365
2657.56178	-0.00367
2655.63322	-0.00370
2653.70465	-0.00374
2651.77609	-0.00379
2649.84753	-0.00388
2647.91896	-0.00402
2645.99040	-0.00420
2644.06183	-0.00438
2642.13327	-0.00450
2640.20470	-0.00450
2638.27614	-0.00440
2636.34757	-0.00426
2634.41901	-0.00411
2632.49045	-0.00398
2630.56188	-0.00386
2628.63332	-0.00376
2626.70475	-0.00369
2624.77619	-0.00363
2622.84762	-0.00357
2620.91906	-0.00352
2618.99049	-0.00348
2617.06193	-0.00344
2615.13337	-0.00341
2613.20480	-0.00338
2611.27624	-0.00336
2609.34767	-0.00333
2607.41911	-0.00332
2605.49054	-0.00331
2603.56198	-0.00329
2601.63342	-0.00329
2599.70485	-0.00331
2597.77629	-0.00334
2595.84772	-0.00335
2593.91916	-0.00335
2591.99059	-0.00338
2590.06203	-0.00341
2588.13346	-0.00348
2586.20490	-0.00361
2584.27634	-0.00379
2582.34777	-0.00394
2580.41921	-0.00398
2578.49064	-0.00392
2576.56208	-0.00381
2574.63351	-0.00369
2572.70495	-0.00359
2570.77638	-0.00351
2568.84782	-0.00344
2566.91926	-0.00338
2564.99069	-0.00333
2563.06213	-0.00329
2561.13356	-0.00326
2559.20500	-0.00324
2557.27643	-0.00322
2555.34787	-0.00320
2553.41930	-0.00321
2551.49074	-0.00321
2549.56218	-0.00319
2547.63361	-0.00316
2545.70505	-0.00315
2543.77648	-0.00313
2541.84792	-0.00312
2539.91935	-0.00310
2537.99079	-0.00310
2536.06222	-0.00310
2534.13366	-0.00308
2532.20510	-0.00307
2530.27653	-0.00306
2528.34797	-0.00304
2526.41940	-0.00303
2524.49084	-0.00305
2522.56227	-0.00306
2520.63371	-0.00306
2518.70514	-0.00305
2516.77658	-0.00303
2514.84802	-0.00302
2512.91945	-0.00302
2510.99089	-0.00301
2509.06232	-0.00300
2507.13376	-0.00299
2505.20519	-0.00298
2503.27663	-0.00299
2501.34806	-0.00301
2499.41950	-0.00302
2497.49094	-0.00303
2495.56237	-0.00303
2493.63381	-0.00302
2491.70524	-0.00301
2489.77668	-0.00301
2487.84811	-0.00300
2485.91955	-0.00300
2483.99098	-0.00302
2482.06242	-0.00302
2480.13386	-0.00301
2478.20529	-0.00300
2476.27673	-0.00300
2474.34816	-0.00300
2472.41960	-0.00301
2470.49103	-0.00301
2468.56247	-0.00300
2466.63391	-0.00300
2464.70534	-0.00301
2462.77678	-0.00302
2460.84821	-0.00303
2458.91965	-0.00303
2456.99108	-0.00303
2455.06252	-0.00302
2453.13395	-0.00301
2451.20539	-0.00301
2449.27683	-0.00302
2447.34826	-0.00302
2445.41970	-0.00301
2443.49113	-0.00300
2441.56257	-0.00299
2439.63400	-0.00299
2437.70544	-0.00301
2435.77687	-0.00303
2433.84831	-0.00303
2431.91975	-0.00302
2429.99118	-0.00302
2428.06262	-0.00301
2426.13405	-0.00300
2424.20549	-0.00299
2422.27692	-0.00299
2420.34836	-0.00299
2418.41979	-0.00299
2416.49123	-0.00300
2414.56267	-0.00300
2412.63410	-0.00299
2410.70554	-0.00297
2408.77697	-0.00295
2406.84841	-0.00294
2404.91984	-0.00295
2402.99128	-0.00297
2401.06271	-0.00298
2399.13415	-0.00299
2397.20559	-0.00300
2395.27702	-0.00300
2393.34846	-0.00298
2391.41989	-0.00297
2389.49133	-0.00296
2387.56276	-0.00295
2385.63420	-0.00294
2383.70563	-0.00295
2381.77707	-0.00298
2379.84851	-0.00301
2377.91994	-0.00301
2375.99138	-0.00302
2374.06281	-0.00305
2372.13425	-0.00308
2370.20568	-0.00311
2368.27712	-0.00313
2366.34855	-0.00315
2364.41999	-0.00318
2362.49143	-0.00320
2360.56286	-0.00320
2358.63430	-0.00318
2356.70573	-0.00315
2354.77717	-0.00310
2352.84860	-0.00305
2350.92004	-0.00301
2348.99147	-0.00300
2347.06291	-0.00302
2345.13435	-0.00305
2343.20578	-0.00309
2341.27722	-0.00311
2339.34865	-0.00313
2337.42009	-0.00314
2335.49152	-0.00314
2333.56296	-0.00315
2331.63440	-0.00315
2329.70583	-0.00314
2327.77727	-0.00312
2325.84870	-0.00310
2323.92014	-0.00308
2321.99157	-0.00306
2320.06301	-0.00306
2318.13444	-0.00305
2316.20588	-0.00304
2314.27732	-0.00302
2312.34875	-0.00303
2310.42019	-0.00303
2308.49162	-0.00304
2306.56306	-0.00303
2304.63449	-0.00303
2302.70593	-0.00302
2300.77736	-0.00300
2298.84880	-0.00299
2296.92024	-0.00298
2294.99167	-0.00298
2293.06311	-0.00299
2291.13454	-0.00299
2289.20598	-0.00297
2287.27741	-0.00295
2285.34885	-0.00296
2283.42028	-0.00297
2281.49172	-0.00298
2279.56316	-0.00298
2277.63459	-0.00298
2275.70603	-0.00298
2273.77746	-0.00298
2271.84890	-0.00299
2269.92033	-0.00299
2267.99177	-0.00300
2266.06320	-0.00300
2264.13464	-0.00301
2262.20608	-0.00302
2260.27751	-0.00303
2258.34895	-0.00303
2256.42038	-0.00302
2254.49182	-0.00301
2252.56325	-0.00298
2250.63469	-0.00296
2248.70612	-0.00295
2246.77756	-0.00295
2244.84900	-0.00295
2242.92043	-0.00294
2240.99187	-0.00294
2239.06330	-0.00295
2237.13474	-0.00296
2235.20617	-0.00296
2233.27761	-0.00295
2231.34904	-0.00294
2229.42048	-0.00293
2227.49192	-0.00294
2225.56335	-0.00295
2223.63479	-0.00296
2221.70622	-0.00296
2219.77766	-0.00296
2217.84909	-0.00297
2215.92053	-0.00299
2213.99196	-0.00300
2212.06340	-0.00300
2210.13484	-0.00298
2208.20627	-0.00297
2206.27771	-0.00297
2204.34914	-0.00298
2202.42058	-0.00297
2200.49201	-0.00296
2198.56345	-0.00296
2196.63488	-0.00296
2194.70632	-0.00298
2192.77776	-0.00299
2190.84919	-0.00298
2188.92063	-0.00297
2186.99206	-0.00298
2185.06350	-0.00300
2183.13493	-0.00303
2181.20637	-0.00303
2179.27781	-0.00301
2177.34924	-0.00300
2175.42068	-0.00300
2173.49211	-0.00299
2171.56355	-0.00299
2169.63498	-0.00300
2167.70642	-0.00299
2165.77785	-0.00298
2163.84929	-0.00299
2161.92073	-0.00300
2159.99216	-0.00301
2158.06360	-0.00301
2156.13503	-0.00300
2154.20647	-0.00299
2152.27790	-0.00300
2150.34934	-0.00301
2148.42077	-0.00301
2146.49221	-0.00300
2144.56365	-0.00299
2142.63508	-0.00300
2140.70652	-0.00302
2138.77795	-0.00303
2136.84939	-0.00303
2134.92082	-0.00302
2132.99226	-0.00301
2131.06369	-0.00301
2129.13513	-0.00302
2127.20657	-0.00303
2125.27800	-0.00305
2123.34944	-0.00305
2121.42087	-0.00304
2119.49231	-0.00302
2117.56374	-0.00302
2115.63518	-0.00302
2113.70661	-0.00302
2111.77805	-0.00303
2109.84949	-0.00303
2107.92092	-0.00303
2105.99236	-0.00302
2104.06379	-0.00302
2102.13523	-0.00303
2100.20666	-0.00305
2098.27810	-0.00304
2096.34953	-0.00302
2094.42097	-0.00301
2092.49241	-0.00300
2090.56384	-0.00300
2088.63528	-0.00301
2086.70671	-0.00303
2084.77815	-0.00304
2082.84958	-0.00304
2080.92102	-0.00303
2078.99245	-0.00303
2077.06389	-0.00304
2075.13533	-0.00303
2073.20676	-0.00303
2071.27820	-0.00302
2069.34963	-0.00302
2067.42107	-0.00302
2065.49250	-0.00302
2063.56394	-0.00304
2061.63537	-0.00305
2059.70681	-0.00304
2057.77825	-0.00303
2055.84968	-0.00304
2053.92112	-0.00304
2051.99255	-0.00303
2050.06399	-0.00302
2048.13542	-0.00301
2046.20686	-0.00303
2044.27830	-0.00304
2042.34973	-0.00304
2040.42117	-0.00304
2038.49260	-0.00304
2036.56404	-0.00305
2034.63547	-0.00304
2032.70691	-0.00304
2030.77834	-0.00303
2028.84978	-0.00304
2026.92122	-0.00303
2024.99265	-0.00304
2023.06409	-0.00306
2021.13552	-0.00308
2019.20696	-0.00308
2017.27839	-0.00306
2015.34983	-0.00304
2013.42126	-0.00305
2011.49270	-0.00306
2009.56414	-0.00306
2007.63557	-0.00305
2005.70701	-0.00305
2003.77844	-0.00306
2001.84988	-0.00306
1999.92131	-0.00307
1997.99275	-0.00308
1996.06418	-0.00308
1994.13562	-0.00307
1992.20706	-0.00307
1990.27849	-0.00308
1988.34993	-0.00309
1986.42136	-0.00309
1984.49280	-0.00310
1982.56423	-0.00310
1980.63567	-0.00310
1978.70710	-0.00309
1976.77854	-0.00308
1974.84998	-0.00309
1972.92141	-0.00310
1970.99285	-0.00309
1969.06428	-0.00308
1967.13572	-0.00309
1965.20715	-0.00310
1963.27859	-0.00311
1961.35002	-0.00310
1959.42146	-0.00311
1957.49290	-0.00311
1955.56433	-0.00310
1953.63577	-0.00308
1951.70720	-0.00308
1949.77864	-0.00309
1947.85007	-0.00308
1945.92151	-0.00307
1943.99294	-0.00306
1942.06438	-0.00307
1940.13582	-0.00309
1938.20725	-0.00310
1936.27869	-0.00309
1934.35012	-0.00307
1932.42156	-0.00307
1930.49299	-0.00308
1928.56443	-0.00310
1926.63586	-0.00311
1924.70730	-0.00311
1922.77874	-0.00311
1920.85017	-0.00310
1918.92161	-0.00308
1916.99304	-0.00308
1915.06448	-0.00310
1913.13591	-0.00311
1911.20735	-0.00310
1909.27878	-0.00307
1907.35022	-0.00306
1905.42166	-0.00307
1903.49309	-0.00308
1901.56453	-0.00308
1899.63596	-0.00308
1897.70740	-0.00309
1895.77883	-0.00310
1893.85027	-0.00310
1891.92171	-0.00309
1889.99314	-0.00309
1888.06458	-0.00310
1886.13601	-0.00310
1884.20745	-0.00310
1882.27888	-0.00311
1880.35032	-0.00313
1878.42175	-0.00314
1876.49319	-0.00314
1874.56463	-0.00314
1872.63606	-0.00312
1870.70750	-0.00309
1868.77893	-0.00307
1866.85037	-0.00310
1864.92180	-0.00315
1862.99324	-0.00319
1861.06467	-0.00319
1859.13611	-0.00320
1857.20755	-0.00322
1855.27898	-0.00326
1853.35042	-0.00328
1851.42185	-0.00329
1849.49329	-0.00329
1847.56472	-0.00327
1845.63616	-0.00324
1843.70759	-0.00327
1841.77903	-0.00336
1839.85047	-0.00345
1837.92190	-0.00349
1835.99334	-0.00352
1834.06477	-0.00354
1832.13621	-0.00352
1830.20764	-0.00351
1828.27908	-0.00351
1826.35051	-0.00352
1824.42195	-0.00352
1822.49339	-0.00351
1820.56482	-0.00350
1818.63626	-0.00347
1816.70769	-0.00345
1814.77913	-0.00343
1812.85056	-0.00340
1810.92200	-0.00340
1808.99343	-0.00342
1807.06487	-0.00346
1805.13631	-0.00350
1803.20774	-0.00360
1801.27918	-0.00378
1799.35061	-0.00401
1797.42205	-0.00418
1795.49348	-0.00415
1793.56492	-0.00395
1791.63635	-0.00377
1789.70779	-0.00367
1787.77923	-0.00361
1785.85066	-0.00355
1783.92210	-0.00350
1781.99353	-0.00349
1780.06497	-0.00350
1778.13640	-0.00352
1776.20784	-0.00350
1774.27927	-0.00342
1772.35071	-0.00337
1770.42215	-0.00343
1768.49358	-0.00350
1766.56502	-0.00357
1764.63645	-0.00361
1762.70789	-0.00365
1760.77932	-0.00378
1758.85076	-0.00402
1756.92220	-0.00432
1754.99363	-0.00457
1753.06507	-0.00462
1751.13650	-0.00451
1749.20794	-0.00444
1747.27937	-0.00450
1745.35081	-0.00463
1743.42224	-0.00483
1741.49368	-0.00516
1739.56512	-0.00574
1737.63655	-0.00654
1735.70799	-0.00742
1733.77942	-0.00837
1731.85086	-0.00935
1729.92229	-0.01014
1727.99373	-0.01072
1726.06516	-0.01127
1724.13660	-0.01194
1722.20804	-0.01281
1720.27947	-0.01386
1718.35091	-0.01533
1716.42234	-0.01776
1714.49378	-0.02071
1712.56521	-0.02203
1710.63665	-0.01987
1708.70808	-0.01546
1706.77952	-0.01163
1704.85096	-0.00955
1702.92239	-0.00853
1700.99383	-0.00777
1699.06526	-0.00707
1697.13670	-0.00636
1695.20813	-0.00567
1693.27957	-0.00514
1691.35100	-0.00473
1689.42244	-0.00436
1687.49388	-0.00397
1685.56531	-0.00357
1683.63675	-0.00339
1681.70818	-0.00347
1679.77962	-0.00354
1677.85105	-0.00350
1675.92249	-0.00342
1673.99392	-0.00340
1672.06536	-0.00340
1670.13680	-0.00340
1668.20823	-0.00347
1666.27967	-0.00359
1664.35110	-0.00364
1662.42254	-0.00369
1660.49397	-0.00379
1658.56541	-0.00382
1656.63684	-0.00366
1654.70828	-0.00333
1652.77972	-0.00320
1650.85115	-0.00338
1648.92259	-0.00350
1646.99402	-0.00346
1645.06546	-0.00350
1643.13689	-0.00360
1641.20833	-0.00361
1639.27976	-0.00349
1637.35120	-0.00330
1635.42264	-0.00322
1633.49407	-0.00330
1631.56551	-0.00339
1629.63694	-0.00338
1627.70838	-0.00333
1625.77981	-0.00326
1623.85125	-0.00322
1621.92269	-0.00324
1619.99412	-0.00325
1618.06556	-0.00317
1616.13699	-0.00314
1614.20843	-0.00325
1612.27986	-0.00334
1610.35130	-0.00334
1608.42273	-0.00331
1606.49417	-0.00328
1604.56561	-0.00327
1602.63704	-0.00326
1600.70848	-0.00326
1598.77991	-0.00327
1596.85135	-0.00327
1594.92278	-0.00327
1592.99422	-0.00328
1591.06565	-0.00328
1589.13709	-0.00327
1587.20853	-0.00326
1585.27996	-0.00325
1583.35140	-0.00325
1581.42283	-0.00324
1579.49427	-0.00315
1577.56570	-0.00301
1575.63714	-0.00298
1573.70857	-0.00308
1571.78001	-0.00313
1569.85145	-0.00311
1567.92288	-0.00313
1565.99432	-0.00317
1564.06575	-0.00313
1562.13719	-0.00292
1560.20862	-0.00264
1558.28006	-0.00261
1556.35149	-0.00284
1554.42293	-0.00305
1552.49437	-0.00314
1550.56580	-0.00319
1548.63724	-0.00320
1546.70867	-0.00317
1544.78011	-0.00309
1542.85154	-0.00296
1540.92298	-0.00286
1538.99441	-0.00298
1537.06585	-0.00321
1535.13729	-0.00332
1533.20872	-0.00334
1531.28016	-0.00338
1529.35159	-0.00339
1527.42303	-0.00331
1525.49446	-0.00319
1523.56590	-0.00304
1521.63733	-0.00294
1519.70877	-0.00297
1517.78021	-0.00307
1515.85164	-0.00314
1513.92308	-0.00319
1511.99451	-0.00320
1510.06595	-0.00311
1508.13738	-0.00295
1506.20882	-0.00292
1504.28025	-0.00311
1502.35169	-0.00329
1500.42313	-0.00329
1498.49456	-0.00320
1496.56600	-0.00316
1494.63743	-0.00321
1492.70887	-0.00325
1490.78030	-0.00323
1488.85174	-0.00323
1486.92317	-0.00328
1484.99461	-0.00334
1483.06605	-0.00337
1481.13748	-0.00339
1479.20892	-0.00340
1477.28035	-0.00335
1475.35179	-0.00326
1473.42322	-0.00322
1471.49466	-0.00328
1469.56610	-0.00337
1467.63753	-0.00332
1465.70897	-0.00314
1463.78040	-0.00287
1461.85184	-0.00235
1459.92327	-0.00150
1457.99471	-0.00074
1456.06614	-0.00070
1454.13758	-0.00141
1452.20902	-0.00233
1450.28045	-0.00313
1448.35189	-0.00377
1446.42332	-0.00436
1444.49476	-0.00484
1442.56619	-0.00507
1440.63763	-0.00509
1438.70906	-0.00517
1436.78050	-0.00556
1434.85194	-0.00607
1432.92337	-0.00617
1430.99481	-0.00576
1429.06624	-0.00535
1427.13768	-0.00520
1425.20911	-0.00523
1423.28055	-0.00540
1421.35198	-0.00570
1419.42342	-0.00607
1417.49486	-0.00632
1415.56629	-0.00630
1413.63773	-0.00600
1411.70916	-0.00549
1409.78060	-0.00492
1407.85203	-0.00443
1405.92347	-0.00408
1403.99490	-0.00388
1402.06634	-0.00375
1400.13778	-0.00364
1398.20921	-0.00355
1396.28065	-0.00349
1394.35208	-0.00346
1392.42352	-0.00347
1390.49495	-0.00348
1388.56639	-0.00345
1386.63782	-0.00344
1384.70926	-0.00348
1382.78070	-0.00352
1380.85213	-0.00356
1378.92357	-0.00364
1376.99500	-0.00377
1375.06644	-0.00399
1373.13787	-0.00427
1371.20931	-0.00454
1369.28074	-0.00483
1367.35218	-0.00526
1365.42362	-0.00570
1363.49505	-0.00592
1361.56649	-0.00592
1359.63792	-0.00567
1357.70936	-0.00509
1355.78079	-0.00438
1353.85223	-0.00387
1351.92366	-0.00364
1349.99510	-0.00354
1348.06654	-0.00349
1346.13797	-0.00346
1344.20941	-0.00343
1342.28084	-0.00340
1340.35228	-0.00338
1338.42371	-0.00343
1336.49515	-0.00361
1334.56659	-0.00400
1332.63802	-0.00460
1330.70946	-0.00524
1328.78089	-0.00583
1326.85233	-0.00640
1324.92376	-0.00691
1322.99520	-0.00724
1321.06663	-0.00732
1319.13807	-0.00725
1317.20951	-0.00712
1315.28094	-0.00705
1313.35238	-0.00715
1311.42381	-0.00743
1309.49525	-0.00783
1307.56668	-0.00850
1305.63812	-0.00956
1303.70955	-0.01023
1301.78099	-0.00928
1299.85243	-0.00713
1297.92386	-0.00531
1295.99530	-0.00444
1294.06673	-0.00420
1292.13817	-0.00423
1290.20960	-0.00433
1288.28104	-0.00439
1286.35247	-0.00437
1284.42391	-0.00428
1282.49535	-0.00416
1280.56678	-0.00405
1278.63822	-0.00394
1276.70965	-0.00386
1274.78109	-0.00381
1272.85252	-0.00376
1270.92396	-0.00371
1268.99539	-0.00367
1267.06683	-0.00365
1265.13827	-0.00362
1263.20970	-0.00357
1261.28114	-0.00352
1259.35257	-0.00349
1257.42401	-0.00348
1255.49544	-0.00347
1253.56688	-0.00347
1251.63831	-0.00347
1249.70975	-0.00347
1247.78119	-0.00346
1245.85262	-0.00346
1243.92406	-0.00345
1241.99549	-0.00343
1240.06693	-0.00340
1238.13836	-0.00338
1236.20980	-0.00336
1234.28123	-0.00334
1232.35267	-0.00333
1230.42411	-0.00332
1228.49554	-0.00331
1226.56698	-0.00330
1224.63841	-0.00330
1222.70985	-0.00329
1220.78128	-0.00328
1218.85272	-0.00326
1216.92415	-0.00324
1214.99559	-0.00323
1213.06703	-0.00323
1211.13846	-0.00325
1209.20990	-0.00326
1207.28133	-0.00325
1205.35277	-0.00324
1203.42420	-0.00323
1201.49564	-0.00323
1199.56708	-0.00325
1197.63851	-0.00325
1195.70995	-0.00325
1193.78138	-0.00325
1191.85282	-0.00324
1189.92425	-0.00324
1187.99569	-0.00325
1186.06712	-0.00325
1184.13856	-0.00326
1182.21000	-0.00326
1180.28143	-0.00328
1178.35287	-0.00329
1176.42430	-0.00330
1174.49574	-0.00330
1172.56717	-0.00330
1170.63861	-0.00329
1168.71004	-0.00330
1166.78148	-0.00330
1164.85292	-0.00329
1162.92435	-0.00330
1160.99579	-0.00331
1159.06722	-0.00332
1157.13866	-0.00330
1155.21009	-0.00329
1153.28153	-0.00331
1151.35296	-0.00333
1149.42440	-0.00333
1147.49584	-0.00334
1145.56727	-0.00336
1143.63871	-0.00338
1141.71014	-0.00338
1139.78158	-0.00337
1137.85301	-0.00337
1135.92445	-0.00339
1133.99588	-0.00339
1132.06732	-0.00339
1130.13876	-0.00338
1128.21019	-0.00339
1126.28163	-0.00339
1124.35306	-0.00339
1122.42450	-0.00339
1120.49593	-0.00338
1118.56737	-0.00337
1116.63880	-0.00337
1114.71024	-0.00337
1112.78168	-0.00338
1110.85311	-0.00338
1108.92455	-0.00337
1106.99598	-0.00337
1105.06742	-0.00336
1103.13885	-0.00334
1101.21029	-0.00331
1099.28172	-0.00330
1097.35316	-0.00331
1095.42460	-0.00331
1093.49603	-0.00331
1091.56747	-0.00333
1089.63890	-0.00335
1087.71034	-0.00334
1085.78177	-0.00333
1083.85321	-0.00333
1081.92464	-0.00332
1079.99608	-0.00330
1078.06752	-0.00329
1076.13895	-0.00331
1074.21039	-0.00334
1072.28182	-0.00336
1070.35326	-0.00337
1068.42469	-0.00342
1066.49613	-0.00350
1064.56756	-0.00364
1062.63900	-0.00394
1060.71044	-0.00462
1058.78187	-0.00566
1056.85331	-0.00646
1054.92474	-0.00636
1052.99618	-0.00556
1051.06761	-0.00471
1049.13905	-0.00417
1047.21049	-0.00388
1045.28192	-0.00371
1043.35336	-0.00360
1041.42479	-0.00352
1039.49623	-0.00350
1037.56766	-0.00356
1035.63910	-0.00367
1033.71053	-0.00390
1031.78197	-0.00431
1029.85341	-0.00476
1027.92484	-0.00501
1025.99628	-0.00496
1024.06771	-0.00474
1022.13915	-0.00444
1020.21058	-0.00412
1018.28202	-0.00386
1016.35345	-0.00371
1014.42489	-0.00363
1012.49633	-0.00358
1010.56776	-0.00354
1008.63920	-0.00351
1006.71063	-0.00349
1004.78207	-0.00348
1002.85350	-0.00347
1000.92494	-0.00350
998.99637	-0.00360
997.06781	-0.00371
995.13925	-0.00382
993.21068	-0.00395
991.28212	-0.00411
989.35355	-0.00429
987.42499	-0.00452
985.49642	-0.00486
983.56786	-0.00533
981.63929	-0.00583
979.71073	-0.00617
977.78217	-0.00621
975.85360	-0.00603
973.92504	-0.00588
971.99647	-0.00597
970.06791	-0.00642
968.13934	-0.00725
966.21078	-0.00838
964.28221	-0.00969
962.35365	-0.01110
960.42509	-0.01259
958.49652	-0.01404
956.56796	-0.01514
954.63939	-0.01544
952.71083	-0.01474
950.78226	-0.01321
948.85370	-0.01133
946.92513	-0.00951
944.99657	-0.00795
943.06801	-0.00672
941.13944	-0.00579
939.21088	-0.00512
937.28231	-0.00463
935.35375	-0.00430
933.42518	-0.00407
931.49662	-0.00391
929.56805	-0.00381
927.63949	-0.00375
925.71093	-0.00370
923.78236	-0.00365
921.85380	-0.00361
919.92523	-0.00356
917.99667	-0.00349
916.06810	-0.00341
914.13954	-0.00335
912.21098	-0.00334
910.28241	-0.00338
908.35385	-0.00341
906.42528	-0.00341
904.49672	-0.00343
902.56815	-0.00349
900.63959	-0.00354
898.71102	-0.00349
896.78246	-0.00337
894.85390	-0.00327
892.92533	-0.00324
890.99677	-0.00325
889.06820	-0.00326
887.13964	-0.00322
885.21107	-0.00316
883.28251	-0.00311
881.35394	-0.00309
879.42538	-0.00308
877.49682	-0.00309
875.56825	-0.00311
873.63969	-0.00310
871.71112	-0.00306
869.78256	-0.00304
867.85399	-0.00304
865.92543	-0.00304
863.99686	-0.00304
862.06830	-0.00306
860.13974	-0.00308
858.21117	-0.00309
856.28261	-0.00309
854.35404	-0.00308
852.42548	-0.00304
850.49691	-0.00298
848.56835	-0.00295
846.63978	-0.00295
844.71122	-0.00300
842.78266	-0.00306
840.85409	-0.00306
838.92553	-0.00300
836.99696	-0.00296
835.06840	-0.00294
833.13983	-0.00293
831.21127	-0.00291
829.28270	-0.00289
827.35414	-0.00293
825.42558	-0.00302
823.49701	-0.00303
821.56845	-0.00297
819.63988	-0.00288
817.71132	-0.00284
815.78275	-0.00287
813.85419	-0.00292
811.92562	-0.00293
809.99706	-0.00292
808.06850	-0.00289
806.13993	-0.00289
804.21137	-0.00294
802.28280	-0.00298
800.35424	-0.00302
798.42567	-0.00302
796.49711	-0.00296
794.56854	-0.00287
792.63998	-0.00279
790.71142	-0.00282
788.78285	-0.00290
786.85429	-0.00293
784.92572	-0.00293
782.99716	-0.00298
781.06859	-0.00308
779.14003	-0.00312
777.21147	-0.00315
775.28290	-0.00315
773.35434	-0.00308
771.42577	-0.00299
769.49721	-0.00293
767.56864	-0.00294
765.64008	-0.00295
763.71151	-0.00295
761.78295	-0.00290
759.85439	-0.00282
757.92582	-0.00280
755.99726	-0.00288
754.06869	-0.00296
752.14013	-0.00291
750.21156	-0.00295
748.28300	-0.00313
746.35443	-0.00329
744.42587	-0.00339
742.49731	-0.00344
740.56874	-0.00343
738.64018	-0.00330
736.71161	-0.00336
734.78305	-0.00362
732.85448	-0.00374
730.92592	-0.00345
728.99735	-0.00357
727.06879	-0.00437
725.14023	-0.00528
723.21166	-0.00448
721.28310	0.00136
719.35453	0.00615
717.42597	0.00188
715.49740	-0.00423
713.56884	-0.00544
711.64027	-0.00504
709.71171	-0.00542
707.78315	-0.00629
705.85458	-0.00699
703.92602	-0.00723
701.99745	-0.00710
700.06889	-0.00698
698.14032	-0.00702
696.21176	-0.00722
694.28319	-0.00760
692.35463	-0.00781
690.42607	-0.00763
688.49750	-0.00760
686.56894	-0.00779
684.64037	-0.00767
682.71181	-0.00743
680.78324	-0.00727
678.85468	-0.00717
676.92611	-0.00724
674.99755	-0.00747
673.06899	-0.00756
671.14042	-0.00739
669.21186	-0.00723
667.28329	-0.00713
665.35473	-0.00718
663.42616	-0.00737
661.49760	-0.00761
659.56903	-0.00771
657.64047	-0.00754
655.71191	-0.00723
653.78334	-0.00708
651.85478	-0.00726
649.92621	-0.00744
647.99765	-0.00750
646.06908	-0.00766
644.14052	-0.00788
642.21195	-0.00796
640.28339	-0.00763
638.35483	-0.00721
636.42626	-0.00714
634.49770	-0.00727
632.56913	-0.00736
630.64057	-0.00738
628.71200	-0.00726
626.78344	-0.00705
624.85488	-0.00701
622.92631	-0.00705
620.99775	-0.00718
619.06918	-0.00748
617.14062	-0.00762
615.21205	-0.00743
613.28349	-0.00720
611.35492	-0.00716
609.42636	-0.00727
607.49780	-0.00739
605.56923	-0.00743
603.64067	-0.00742
601.71210	-0.00744
599.78354	-0.00738
597.85497	-0.00737
595.92641	-0.00760
593.99784	-0.00787
592.06928	-0.00796
590.14072	-0.00793
588.21215	-0.00776
586.28359	-0.00745
584.35502	-0.00727
582.42646	-0.00733
580.49789	-0.00729
578.56933	-0.00704
576.64076	-0.00694
574.71220	-0.00712
572.78364	-0.00733
570.85507	-0.00745
568.92651	-0.00749
566.99794	-0.00752
565.06938	-0.00751
563.14081	-0.00742
561.21225	-0.00734
559.28368	-0.00734
557.35512	-0.00750
555.42656	-0.00768
553.49799	-0.00762
551.56943	-0.00731
549.64086	-0.00706
547.71230	-0.00709
545.78373	-0.00724
543.85517	-0.00727
541.92660	-0.00715
539.99804	-0.00695
538.06948	-0.00686
536.14091	-0.00708
534.21235	-0.00742
532.28378	-0.00744
530.35522	-0.00719
528.42665	-0.00706
526.49809	-0.00724
524.56952	-0.00747
522.64096	-0.00751
520.71240	-0.00751
518.78383	-0.00760
516.85527	-0.00764
514.92670	-0.00757
512.99814	-0.00750
511.06957	-0.00748
509.14101	-0.00752
507.21244	-0.00765
505.28388	-0.00779
503.35532	-0.00762
501.42675	-0.00708
499.49819	-0.00669
497.56962	-0.00685
495.64106	-0.00715
493.71249	-0.00715
491.78393	-0.00703
489.85537	-0.00702
487.92680	-0.00703
485.99824	-0.00700
484.06967	-0.00704
482.14111	-0.00706
480.21254	-0.00702
478.28398	-0.00693
476.35541	-0.00658
474.42685	-0.00650
472.49829	-0.00701
470.56972	-0.00725
468.64116	-0.00712
466.71259	-0.00727
464.78403	-0.00772
462.85546	-0.00819
460.92690	-0.00867
458.99833	-0.00886
457.06977	-0.00854
455.14121	-0.00799
453.21264	-0.00753
451.28408	-0.00751
449.35551	-0.00791
447.42695	-0.00861
445.49838	-0.00947
443.56982	-0.00974
441.64125	-0.00918
439.71269	-0.00832
437.78413	-0.00749
435.85556	-0.00695
433.92700	-0.00674
431.99843	-0.00679
430.06987	-0.00707
428.14130	-0.00731
426.21274	-0.00739
424.28417	-0.00755
422.35561	-0.00794
420.42705	-0.00825
418.49848	-0.00811
416.56992	-0.00774
414.64135	-0.00772
412.71279	-0.00807
410.78422	-0.00837
408.85566	-0.00814
406.92709	-0.00761
404.99853	-0.00742
403.06997	-0.00751
401.14140	-0.00741
399.21284	-0.00715
397.28427	-0.00707
395.35571	-0.00723
393.42714	-0.00742
391.49858	-0.00745
389.57001	-0.00742
387.64145	-0.00747
385.71289	-0.00738
383.78432	-0.00718
381.85576	-0.00695
379.92719	-0.00667
377.99863	-0.00663
376.07006	-0.00694
374.14150	-0.00721
372.21293	-0.00723
370.28437	-0.00720
368.35581	-0.00730
